time_ms,pointer,middle,ring,ecg
0,2127,2003,3165,574
20,2117,2007,3593,1497
40,2005,1901,2900,3340
60,1915,1814,2852,3327
80,1877,1784,2915,1229
100,1842,1775,2920,600
120,1817,1791,3591,1519
140,1759,1827,2889,3453
160,1721,1827,2861,3299
180,1677,1834,2919,1262
200,1653,1839,2935,503
220,1631,1849,3601,1451
240,1623,1839,2889,4095
260,1627,1833,2863,4019
280,1659,1838,2923,979
300,1669,1849,2925,453
320,1677,1848,3605,1515
340,1699,1835,2905,3497
360,1715,1847,2861,3379
380,1736,1863,2916,1235
400,1742,1887,2932,585
420,1754,1892,3577,1519
440,1745,1871,2893,3733
460,1743,1839,2892,3711
480,1737,1839,2918,1707
500,1725,1846,2926,1031
520,1727,1851,3594,1655
540,1733,1863,2899,3469
560,1723,1853,2887,3220
580,1767,1881,2918,1019
600,1818,1901,2938,346
620,1867,1931,3603,1175
640,1893,1949,2890,3190
660,1901,1977,2878,3223
680,1909,1994,2923,1175
700,1917,2015,2924,399
720,1926,2007,3596,1300
740,1893,1981,2898,3276
760,1861,1949,2902,3318
780,1833,1934,2933,1225
800,1816,1925,2927,430
820,1801,1916,3595,1269
840,1804,1893,2901,3292
860,1789,1867,2888,3336
880,1817,1869,2914,1223
900,1845,1893,2935,469
920,1865,1915,3589,1367
940,1881,1912,2891,3352
960,1879,1911,2901,3509
980,1887,1928,2917,1277
1201,1824,1851,3307,803
1221,1781,1832,3399,1959
1241,1664,1716,2907,3763
1261,1614,1654,2846,3051
1281,1613,1639,2943,972
1301,1651,1679,2935,779
1321,1695,1725,3411,2293
1341,1735,1755,2899,4095
1361,1767,1785,2857,3573
1381,1811,1821,2941,1272
1401,1843,1853,2925,595
1421,1881,1880,3420,1800
1441,1899,1912,2903,3342
1461,1927,1875,2856,2796
1481,1965,1919,2937,671
1501,2011,1944,2943,363
1521,2021,1951,3405,1775
1541,2013,1958,2907,3539
1561,2005,1933,2853,2815
1581,1976,1955,2942,701
1601,1971,1967,2938,467
1621,1938,1944,3428,1814
1641,1894,1928,2897,3539
1661,1879,1907,2847,2984
1681,1861,1900,2939,803
1701,1851,1901,2953,431
1721,1855,1903,3427,1919
1741,1845,1890,2904,3613
1761,1866,1887,2841,2981
1781,1899,1893,2939,888
1801,1929,1915,2939,489
1821,1936,1931,3451,1898
1841,1934,1929,2904,3687
1861,1913,1901,2858,3067
1881,1915,1915,2949,915
1901,1927,1913,2958,531
1921,1928,1911,3451,1883
1941,1895,1909,2901,3599
1961,1876,1875,2846,2997
1981,1870,1877,2932,1055
2001,1869,1865,2927,2325
2021,1870,1866,3427,2351
2041,1835,1851,2908,3401
2061,1813,1843,2845,3069
2081,1811,1836,2922,915
2101,1829,1867,2941,505
2121,1847,1868,3448,1947
2141,1833,1867,2909,3671
2161,1827,1851,2853,3211
2181,1839,1875,2941,1105
2764,1957,2065,2927,1071
2784,1935,2019,2940,519
2804,1843,1903,3597,1489
2824,1771,1816,2905,3622
2844,1748,1769,2855,3402
2864,1752,1782,2967,1147
2884,1785,1807,2943,453
2904,1789,1831,3611,1467
2924,1791,1831,2904,4095
2944,1803,1839,2845,4095
2964,1821,1867,2939,973
2984,1839,1884,2939,349
3004,1846,1893,3576,1430
3024,1843,1878,2904,3503
3044,1830,1875,2858,3292
3064,1833,1884,2925,1323
3084,1855,1891,2940,598
3104,1861,1892,3593,1548
3124,1839,1866,2907,3661
3144,1823,1843,2853,3709
3164,1824,1854,2936,1563
3184,1837,1869,2938,969
3204,1853,1891,3599,1798
3224,1885,1895,2904,3590
3244,1919,1904,2861,3259
3264,1964,1917,2934,973
3284,2021,1961,2940,243
3304,2069,2005,3612,1195
3324,2079,2008,2905,3323
3344,2072,2010,2857,3131
3364,2055,2013,2933,1046
3384,2039,2019,2951,345
3404,2027,2015,3593,1307
3424,1991,1997,2915,3262
3444,1959,1977,2895,3155
3464,1951,1995,2927,1087
3484,1955,1991,2941,495
3504,1965,1979,3618,1390
3524,1972,1971,2901,3337
3544,1963,1961,2904,3227
3564,1961,1961,2937,1253
3584,1973,1981,2940,393
3604,1975,1984,3621,1237
3624,1960,1968,2921,3412
3644,1939,1949,2898,3397
3664,1949,1944,2925,1307
3684,1955,1939,2938,461
3704,1949,1943,3603,1243
3724,1934,1915,2907,3452
3744,1925,1907,2901,3434
4798,1906,1891,2956,831
4819,1869,1865,2933,487
4839,1788,1781,3225,2742
4859,1728,1723,2897,4095
4879,1738,1727,2860,2647
4899,1775,1785,2956,571
4919,1816,1829,2927,599
4939,1837,1864,3263,2260
4959,1853,1892,2889,3754
4979,1869,1914,2867,2645
4999,1880,1935,2941,812
5019,1885,1945,2951,703
5039,1897,1939,3279,2431
5059,1886,1912,2885,4051
5079,1875,1909,2860,3217
5099,1875,1917,2955,1172
5119,1887,1927,2940,1006
5139,1890,1927,3297,2541
5159,1901,1899,2899,3703
5179,1903,1901,2847,2536
5199,1951,1914,2943,547
5219,1991,1956,2939,339
5239,1999,1959,3284,2091
5259,2029,1963,2907,3549
5279,2037,1972,2851,2552
5299,2073,1996,2955,714
5319,2085,2019,2940,553
5339,2093,2008,3288,2093
5359,2018,1983,2910,3641
5379,2019,1961,2860,2629
5399,1994,1965,2965,623
5419,1983,1963,2940,519
5439,2003,1955,3285,2088
5459,1957,1941,2908,3629
5479,1939,1932,2845,2749
5499,1947,1944,2968,637
5519,1944,1946,2937,461
5539,1967,1961,3321,2140
5559,1955,1945,2905,3691
5579,2005,1947,2855,2677
5599,1976,1961,2971,717
5619,1994,1976,2943,503
5639,1979,1979,3365,2189
5659,1973,1966,2915,3653
5679,1951,1949,2860,2824
5699,1944,1949,2963,731
5719,1929,1945,2943,562
5739,1951,1944,3339,2129
5759,1931,1919,2905,4095
5779,1919,1912,2851,3405
6135,2025,1971,2956,391
6156,2059,1961,3241,2183
6176,1991,1884,2898,3573
6196,1945,1839,2853,2438
6216,1949,1852,2951,639
6236,1945,1871,2943,535
6256,1965,1895,3259,2221
6276,1979,1928,2907,3527
6296,1962,1932,2852,2709
6316,1967,1945,2957,540
6336,1971,1963,2951,534
6356,1960,1957,3271,2327
6376,1959,1946,2899,3725
6396,1966,1939,2861,2637
6416,1997,1958,2970,731
6436,2025,1980,2942,638
6456,2030,1981,3292,2252
6476,2013,1979,2915,3701
6496,2011,1965,2859,2734
6516,2013,1974,2967,694
6536,2005,1994,2955,540
6556,2003,1988,3289,2275
6576,1967,1976,2907,3903
6596,1948,1957,2863,2765
6616,1951,1959,2956,733
6636,1937,1963,2957,612
6656,1925,1963,3324,2137
6676,1908,1929,2916,4095
6696,1903,1927,2855,4095
6716,1929,1939,2973,650
6736,1927,1945,2959,533
6756,1920,1931,3324,2173
6776,1893,1897,2917,3639
6796,1883,1884,2861,2743
6816,1883,1894,2973,781
6836,1896,1903,2940,652
6856,1893,1910,3337,2348
6876,1893,1915,2910,3987
6896,1899,1919,2863,2940
6916,1903,1935,2972,1112
6936,1911,1943,2935,1052
6956,1926,1951,3382,2647
6976,1918,1935,2911,3917
6996,1945,1932,2859,2736
7016,1977,1957,2971,661
7036,2027,1973,2939,313
7056,2069,1992,3401,1954
7076,2093,1991,2915,3476
7096,2095,1995,2847,2719
7116,2103,2021,2971,484
7830,2015,1927,2877,1864
7850,1983,1925,2952,949
7870,1874,1870,2949,995
7890,1805,1819,3169,2860
7910,1771,1815,2898,4095
7930,1784,1829,2868,2744
7950,1837,1897,2935,415
7970,1901,1973,2933,319
7990,1967,2023,3181,2219
8010,1994,2059,2899,3518
8030,2031,2125,2851,2406
8050,2075,2230,2933,500
8070,2091,2324,2936,453
8090,2094,2344,3195,2139
8110,2071,2348,2903,3624
8130,2055,2253,2856,2506
8150,2071,2157,2955,537
8170,2075,2119,2949,443
8190,2068,2077,3221,2333
8210,2043,2004,2893,3717
8230,2056,1951,2853,2570
8250,2067,1935,2938,645
8270,2075,1961,2949,595
8290,2059,2005,3224,2419
8310,2021,2004,2879,3667
8330,1983,1965,2841,2740
8350,1973,1909,2951,722
8370,1939,1889,2927,635
8390,1903,1861,3247,2553
8410,1846,1843,2877,4095
8430,1791,1838,2840,2853
8450,1772,1832,2962,611
8470,1764,1845,2931,555
8490,1787,1843,3243,2284
8510,1864,1883,2886,3711
8530,1943,1938,2836,2763
8550,2015,1971,2955,483
8570,2054,1999,2927,1511
8590,2071,1977,3282,4095
8610,2038,1941,2885,3621
8630,1979,1867,2843,2840
8650,1972,1845,2950,474
8670,2009,1831,2925,415
8690,2091,1831,3263,2236
8710,2166,1797,2891,4051
8730,2267,1781,2836,2965
8750,2376,1777,2943,743
8770,2473,1787,2932,525
8790,2565,1783,3300,2410
8810,2595,1783,2891,4095
10428,718,953,2841,4095
10449,1518,1493,2879,1523
10469,2195,1831,2902,357
10489,2657,2036,3531,1049
10509,2887,2135,2863,3767
10529,2879,2173,2871,4011
10549,2671,2181,2853,1821
10569,2413,2172,2898,366
10589,2379,2185,3562,675
10609,2511,2351,2871,3159
10629,2665,2577,2845,3208
10649,2788,2826,2868,1017
10669,2705,3039,2959,0
10689,2527,3161,3593,520
10709,2621,3134,2915,3019
10729,2943,2974,2915,3427
10749,3325,2770,2869,1379
10769,3631,2607,2935,131
10789,3688,2445,3539,863
10809,3563,2260,2891,3150
10829,3355,2099,2893,3793
10849,3142,1990,2901,1651
10869,2899,1901,2905,431
10889,2699,1839,3497,1044
10909,2659,1848,2869,3592
10929,2796,1956,2875,3957
10949,3099,2125,2890,1673
10969,3483,2277,2893,377
10989,3839,2348,3493,915
11009,4087,2279,2871,3417
11029,4014,2159,2863,3592
11049,3678,2059,2897,1925
11069,3229,2014,2897,2133
11089,2677,2084,3471,1417
11109,2039,2087,2886,3197
11129,1240,2012,2875,3704
11149,438,1929,2863,1597
11169,0,1783,2899,350
11189,0,1606,3438,931
11209,0,1381,2857,3516
11229,0,1103,2867,4095
11249,0,870,2854,1885
11269,0,727,2873,829
11289,0,701,3429,1261
11309,393,827,2851,3933
11329,1215,1113,2856,4095
11349,2165,1589,2873,1785
11369,3239,2259,2891,0
11389,4095,3115,3640,313
11409,4095,4095,2941,2427
14911,1655,1641,2851,4095
14931,2387,1938,2835,4095
14951,3436,2399,2879,776
14971,4095,3015,2902,0
14991,4095,3692,3611,309
15011,4095,4095,2877,2407
15031,4095,4095,2861,3188
15051,4095,4040,2899,815
15071,4095,3625,2931,0
15091,4095,3219,3609,229
15111,4095,2869,2899,3180
15131,4095,2615,2875,4095
15151,2824,2451,2894,1529
15171,1821,2315,2893,0
15191,969,2219,3545,617
15211,325,2139,2874,4095
15231,0,2137,2861,4095
15251,0,2216,2889,1829
15271,0,2351,2889,0
15291,3,2477,3539,821
15311,223,2569,2872,3672
15331,425,2585,2875,4095
15351,699,2516,2887,1573
15371,1005,2407,2898,0
15391,1355,2275,3560,444
15411,1656,2132,2855,4095
15431,1852,1965,2863,4095
15451,1957,1832,2860,1891
15471,1979,1735,2899,0
15491,1943,1658,3506,505
15511,1845,1571,2853,4095
15531,1710,1499,2859,4095
15551,1580,1459,2859,2141
15571,1495,1460,2889,158
15591,1451,1485,3497,810
15611,1419,1499,2859,4095
15631,1368,1518,2845,4095
15651,1327,1561,2861,2007
15671,1307,1617,2899,0
15691,1299,1637,3517,1663
15711,1290,1636,2867,4095
15731,1275,1621,2857,4095
15751,1243,1624,2859,1951
15771,1213,1629,2889,0
15791,1207,1655,3503,275
15811,1170,1643,2841,3934
15831,1141,1631,2857,4095
15851,1109,1607,2853,1836
15871,1082,1583,2898,0
15891,1065,1560,3495,403
17529,2424,1787,2872,4095
17550,2193,1491,2811,3551
17570,1950,1175,2939,613
17590,1832,995,2916,25
17610,1791,937,3149,4095
17630,1805,1036,2869,4095
17650,1803,1231,2813,3499
17670,1664,1471,2917,508
17690,1365,1701,2907,0
17710,860,1913,3211,1957
17730,335,2059,2855,4095
17750,89,2092,2823,3483
17770,64,2041,2924,367
17790,42,1885,2904,0
17810,4,1641,3224,2252
17830,192,1350,2861,4095
17850,587,1123,2824,4095
17870,1086,1039,2923,1165
17890,1645,1119,2904,231
17910,2276,1382,3237,2075
17930,2950,1789,2869,4095
17950,3555,2284,2822,3188
17970,3803,2787,2920,0
17990,3589,3131,2939,0
18010,3087,3195,3340,1099
18030,2401,2980,2899,4063
18050,1564,2649,2834,3303
18070,1041,2381,2953,146
18090,943,2227,2933,0
18110,1097,2151,3275,1843
18130,1395,2105,2904,4095
18150,1642,2044,2829,3689
18170,1829,2003,2931,303
18190,1945,1960,2900,0
18210,1991,1900,3283,1899
18230,2013,1864,2892,4095
18250,2083,1861,2835,3773
18270,2235,1928,2941,551
18290,2515,2069,2921,0
18310,2684,2223,3341,1783
18330,2821,2324,2886,4095
18350,2863,2386,2843,3719
18370,2739,2387,2943,479
18390,2469,2345,2928,0
18410,2103,2227,3357,1801
18430,1571,2053,2871,4095
18450,1223,1867,2826,3861
18470,1107,1715,2932,454
18490,1099,1612,2921,0
18510,986,1541,3287,1699
20551,1643,1769,2809,3143
20572,1513,1739,2871,0
20592,1459,1647,3327,0
20612,1357,1558,2891,3039
20632,1013,1462,2824,4095
20652,729,1396,2807,2840
20672,749,1395,2861,88
20692,1019,1469,3349,42
20712,1391,1557,2891,3759
20732,1685,1629,2845,4095
20752,1895,1741,2808,3283
20772,2136,1981,2857,0
20792,2441,2357,3357,0
20812,2741,2733,2952,2378
20832,2942,3124,2847,4095
20852,2871,3359,2827,2302
20872,2555,3337,2890,0
20892,2477,3100,3384,0
20912,2683,2744,2927,2513
20932,2937,2425,2869,4095
20952,3112,2141,2821,2799
20972,3126,1928,2871,0
20992,2937,1791,3285,0
21012,2603,1737,2901,3004
21032,2075,1663,2845,4095
21052,1512,1657,2827,2903
21072,1139,1694,2861,0
21092,995,1756,3297,0
21112,947,1845,2909,2967
21132,943,2013,2840,4095
21152,859,2213,2823,2952
21172,730,2394,2869,0
21192,761,2507,3333,0
21212,937,2520,2935,2761
21232,1163,2439,2844,4095
21252,1333,2262,2814,2961
21272,1423,2069,2875,0
21292,1359,1915,3277,0
21312,1429,1724,2892,3032
21332,1636,1580,2846,4095
21352,1883,1502,2806,3279
21372,2102,1472,2861,291
21392,2334,1435,3253,0
21412,2622,1415,2915,2965
21432,2815,1405,2838,4095
21452,2919,1447,2799,3175
21472,2943,1576,2851,0
21492,2903,1693,3257,61
21512,2719,1807,2916,4095
21532,2427,1893,2843,4095
23381,1909,1597,2839,4095
23401,1272,1564,2777,4095
23421,701,1467,2853,1382
23441,376,1407,2858,0
23461,287,1382,3386,873
23481,607,1367,2787,4095
23501,1207,1380,2780,4095
23521,1887,1463,2851,1517
23541,2469,1526,2872,0
23561,2855,1581,3387,749
23581,2972,1595,2843,4095
23601,2869,1591,2805,4095
23621,2542,1627,2847,1245
23641,2036,1637,2879,0
23661,1544,1653,3439,823
23681,1091,1648,2851,4095
23701,685,1617,2771,4095
23721,660,1575,2859,1804
23741,964,1559,2874,19
23761,1480,1625,3423,1151
23781,2131,1785,2845,4095
23801,2857,2066,2763,4095
23821,3660,2460,2843,804
23841,4095,2863,2918,0
23861,4095,3207,3516,211
23881,3558,3327,2873,3287
23901,2841,3221,2808,4095
23921,2057,2904,2869,805
23941,1631,2514,2889,0
23961,1645,2163,3471,523
23981,1901,1939,2851,4095
24001,2252,1819,2805,4095
24021,2535,1830,2885,1447
24041,2731,1873,2876,0
24061,2776,1955,3477,655
24081,2760,2035,2855,4095
24101,2765,2122,2800,4095
24121,2862,2228,2863,1315
24141,3027,2357,2879,0
24161,3204,2453,3506,533
24181,3279,2475,2857,4095
24201,3244,2469,2807,4095
24221,3067,2422,2888,1367
24241,2733,2300,2901,0
24261,2207,2151,3481,611
24281,1609,2025,2863,4095
24301,1083,1961,2806,4095
24321,747,1943,2889,1821
24341,585,1983,2893,0
24361,587,2035,3477,702
25756,1619,1892,2887,729
25776,1983,1944,2906,0
25796,2601,2026,3179,1885
25816,3549,2205,2840,4095
25836,4095,2454,2811,3588
25856,4095,2715,2899,0
25876,4095,2875,2923,0
25896,4095,2875,3252,1333
25916,4095,2765,2869,4095
25936,4095,2632,2809,3694
25956,4095,2520,2892,1
25976,3991,2397,2915,18
25996,3060,2253,3231,1679
26016,2477,2123,2875,4095
26036,2101,2045,2807,3838
26056,1932,2073,2892,55
26076,1938,2173,2909,0
26096,2085,2261,3251,811
26116,2246,2335,2861,3179
26136,2379,2319,2798,2701
26156,2454,2225,2905,0
26176,2495,2055,2891,0
26196,2468,1838,3213,937
26216,2365,1615,2856,4095
26236,2169,1426,2799,3796
26256,1939,1277,2879,392
26276,1659,1192,2886,0
26296,1388,1160,3191,2413
26316,1167,1149,2851,4095
26336,999,1189,2791,4095
26356,907,1259,2886,1757
26376,875,1378,2873,423
26396,895,1515,3212,2513
26416,919,1619,2857,4095
26436,949,1727,2781,4095
26456,968,1833,2869,1099
26476,971,1870,2892,41
26496,939,1850,3251,4095
26516,913,1805,2859,4095
26536,927,1755,2779,4095
26556,998,1696,2873,821
26576,1075,1623,2893,0
26596,1097,1498,3219,1881
26616,1116,1349,2857,4095
26636,1225,1236,2776,4095
26656,1428,1193,2869,827
26676,1681,1175,2887,0
26696,1895,1171,3256,1977
26716,2009,1199,2853,4095
26736,2041,1255,2792,4095
27265,3013,2237,2872,4095
27285,2268,2080,2857,4095
27305,1232,1901,2857,1911
27325,348,1717,2868,0
27345,0,1615,3398,623
27365,0,1513,2839,4095
27385,0,1465,2829,4095
27405,0,1525,2847,2729
27425,397,1591,2869,1685
27445,1672,1611,3430,441
27465,2733,1598,2839,4007
27485,3371,1673,2825,4095
27505,3605,1747,2841,1811
27525,3426,1913,2889,0
27545,3065,2099,3455,378
27565,2601,2237,2858,4051
27585,2015,2325,2852,4095
27605,1269,2343,2855,1797
27625,685,2219,2893,0
27645,358,2084,3468,585
27665,287,2129,2851,4095
27685,393,2155,2851,4095
27705,638,2275,2860,1919
27725,999,2551,2913,0
27745,1443,2975,3527,0
27765,1815,3426,2873,2905
27785,1963,3784,2879,3897
27805,1847,3869,2875,997
27825,1899,3691,2953,0
27845,2359,3381,3579,29
27865,2954,2997,2887,3230
27885,3515,2620,2873,4095
27905,3925,2283,2870,1817
27925,3967,1981,2909,0
27945,3627,1724,3425,401
27965,3129,1467,2859,4095
27985,2585,1285,2835,4095
28005,2052,1263,2843,2263
28025,1235,1381,2875,0
28045,442,1580,3411,426
28065,0,1835,2840,4095
28085,0,2137,2851,4095
28105,547,2355,2839,1855
28125,1405,2507,2906,0
28145,2212,2507,3475,165
28165,2744,2375,2845,3855
28185,2952,2147,2838,4095
28205,2837,1881,2831,2096
28225,2355,1595,2879,0
28245,1559,1337,3369,423
29778,4095,2094,3397,137
29799,4095,1575,2825,4095
29819,4095,1135,2761,4095
29839,4095,893,2842,2087
29859,4095,855,2904,0
29879,4095,925,3357,715
29899,4095,1087,2797,4095
29919,4095,1286,2781,4095
29939,4095,1515,2861,1701
29959,4095,1699,2901,0
29979,3791,1815,3390,436
29999,2489,1851,2829,4095
30019,1083,1779,2792,4095
30039,0,1657,2915,1877
30059,0,1541,2905,0
30079,0,1439,3383,590
30099,245,1404,2806,4095
30119,971,1435,2781,4095
30139,1605,1483,2886,1771
30159,1948,1503,2967,0
30179,1979,1494,3368,555
30199,1497,1477,2803,4095
30219,729,1427,2795,4095
30239,111,1384,2887,1791
30259,8,1367,2987,0
30279,343,1383,3384,1599
30299,891,1406,2807,4095
30319,1447,1481,2805,4095
30339,1933,1577,2889,1390
30359,2327,1741,2949,0
30379,2584,1940,3454,345
30399,2651,2117,2811,3893
30419,2585,2301,2822,4095
30439,2388,2489,2869,1467
30459,2093,2623,2909,0
30479,1573,2680,3435,350
30499,795,2587,2823,4095
30519,108,2357,2807,4095
30539,0,2065,2847,2411
30559,0,1959,2887,0
30579,307,1949,3414,445
30599,1842,2253,2835,4075
30619,3956,2879,2799,4095
30639,4095,3737,2841,909
30659,4095,4095,2908,0
30679,4095,4095,3559,0
30699,4095,4095,2856,2899
30719,4095,4095,2853,4095
30739,4095,3886,2852,1118
30759,4095,3177,2905,0
31108,3360,1587,2855,0
31129,3366,1110,3368,659
31149,3254,621,2797,4095
31169,3311,317,2807,4095
31189,3369,267,2869,2391
31209,3294,397,2936,1426
31229,3053,647,3351,2104
31249,2621,960,2795,4095
31269,2129,1240,2825,4095
31289,1519,1492,2867,1742
31309,889,1677,2961,0
31329,125,1780,3385,373
31349,0,1835,2809,4095
31369,0,1878,2807,4095
31389,0,1910,2858,1847
31409,0,1933,2938,0
31429,0,1943,3431,536
31449,0,1925,2811,4095
31469,1020,1877,2807,4095
31489,2031,1849,2857,2182
31509,3091,1902,2924,0
31529,4095,2157,3461,197
31549,4095,2629,2837,3436
31569,4095,3145,2812,4095
31589,4095,3641,2853,1001
31609,4095,3967,2925,0
31629,4095,3935,3540,0
31649,4095,3547,2862,3039
31669,4095,3036,2837,4095
31689,4095,2511,2840,1561
31709,4095,1977,2877,0
31729,4095,1483,3381,303
31749,4095,1049,2815,4095
31769,4095,749,2827,4095
31789,1971,682,2836,2217
31809,77,925,2877,0
31829,0,1405,3375,547
31849,0,2009,2815,4095
31869,523,2521,2823,4095
31889,1672,2887,2840,1663
31909,2749,3343,2921,0
31929,3544,4095,3525,0
31949,3943,4095,2870,3357
31969,3828,4095,2857,4095
31989,3391,4095,2846,1399
32009,2871,4095,2910,0
32029,2398,4095,3539,63
32049,2010,4095,2887,3543
32069,1726,4095,2867,4095
32089,1581,1339,2859,2101
32279,1627,1757,3347,875
32300,1701,1645,2835,4095
32320,1643,1453,2776,4095
32340,1575,1307,2855,1069
32360,1495,1258,2920,0
32380,1407,1255,3237,1739
32400,1356,1295,2828,4095
32420,1509,1353,2764,4095
32440,2125,1567,2867,936
32460,3119,2011,2913,56
32480,4095,2537,3327,730
32500,4095,3015,2841,3787
32520,4095,3567,2775,3911
32540,4095,4095,2875,0
32560,4095,4095,2924,0
32580,4095,4095,3429,519
32600,4095,4095,2891,3463
32620,4095,4095,2823,3932
32640,4095,3671,2875,26
32660,3285,3111,2915,0
32680,2488,2607,3283,906
32700,1800,2107,2853,4095
32720,923,1613,2786,4095
32740,109,1151,2841,1365
32760,0,968,2873,61
32780,493,1060,3187,1609
32800,1419,1337,2806,4095
32820,2397,1721,2764,4095
32840,3187,2031,2869,941
32860,3627,2159,2911,0
32880,3533,2078,3271,1033
32900,2997,1851,2809,4095
32920,2009,1525,2765,4095
32940,499,1205,2867,1160
32960,0,969,2941,0
32980,0,843,3223,1624
33000,0,800,2803,4095
33020,0,852,2780,4095
33040,0,1019,2932,1199
33060,812,1209,2919,0
33080,1619,1337,3253,909
33100,2079,1399,2812,4095
33120,2152,1383,2773,4095
33140,1868,1335,2919,895
33160,1005,1267,2932,0
33180,56,1157,3209,1181
33200,0,1019,2812,4095
33220,0,933,2783,4095
33240,285,967,2961,1067
33260,1059,1075,2917,0
33839,3292,2207,2869,1382
33859,3641,2203,2936,620
33879,3576,2027,3261,964
33899,3240,1855,2803,3347
33919,2855,1657,2831,3757
33939,2479,1498,2844,2039
33959,2185,1404,2967,627
33979,1973,1365,3215,1336
33999,1845,1359,2793,3451
34019,1775,1355,2828,3795
34039,1783,1423,2879,1852
34059,1828,1477,2942,1900
34079,1881,1523,3232,2325
34099,1927,1578,2795,3005
34119,1918,1604,2830,3483
34139,1919,1619,2895,1706
34159,1916,1657,2948,767
34179,1882,1656,3263,1097
34199,1812,1607,2799,3300
34219,1719,1548,2831,3565
34239,1637,1501,2891,1948
34259,1559,1485,2943,821
34279,1453,1468,3252,1449
34299,1381,1452,2797,3737
34319,1373,1510,2843,4095
34339,1626,1755,2899,2075
34359,2223,2303,2962,380
34379,3087,3109,3341,495
34399,4095,4095,2868,2363
34419,4095,4095,2839,2876
34439,4095,4095,2829,1101
34459,4095,4095,2952,0
34479,4095,4095,3412,573
34499,4095,4095,2867,2667
34519,3369,4095,2857,3223
34539,1614,4095,2837,1476
34559,74,3165,2907,304
34579,0,2387,3237,1237
34599,0,1865,2829,3405
34619,0,1638,2831,3930
34639,0,1685,2827,2251
34659,820,1903,2904,687
34679,2022,2175,3269,1143
34699,2997,2419,2828,3375
34719,3244,2473,2833,3624
34739,2458,2297,2823,1779
34759,1309,2140,2904,412
34779,264,2104,3221,1261
34799,0,2222,2803,3577
34819,0,2413,2813,3791
36652,79,1407,2805,4095
36672,0,1711,2895,2408
36692,335,1869,2898,313
36712,939,1979,3206,343
36732,1711,2036,2791,3025
36752,2455,2041,2839,4095
36772,2969,2030,2901,2298
36792,3214,1995,2903,0
36812,3273,1934,3209,389
36832,3221,1852,2791,3143
36852,2971,1785,2835,4095
36872,2543,1703,2907,2385
36892,2067,1580,2899,101
36912,1545,1421,3189,411
36932,1020,1187,2789,3405
36952,203,939,2873,4095
36972,0,748,2899,2887
36992,0,647,2907,143
37012,0,649,3161,199
37032,0,788,2795,3531
37052,0,1033,2918,4095
37072,0,1327,2915,2604
37092,0,1607,2923,1737
37112,0,1773,3221,649
37132,0,1762,2799,2902
37152,0,1545,2891,4095
37172,457,1173,2913,2475
37192,1070,735,2948,0
37212,1479,379,3181,357
37232,1703,216,2789,3721
37252,1789,281,2939,4095
37272,1807,613,2920,2702
37292,1788,1079,2926,117
37312,1708,1509,3256,435
37332,1526,1770,2783,3733
37352,1069,1821,2873,4095
37372,679,1735,2970,2925
37392,543,1656,2918,0
37412,745,1779,3247,0
37432,1383,2173,2803,2681
37452,2595,2763,2853,4095
37472,4095,3515,2867,1459
37492,4095,4095,2980,0
37512,4095,4095,3405,0
37532,4095,4095,2871,2123
37552,4095,4095,2853,3995
37572,4095,4095,2835,1844
37592,4095,3611,2899,0
37612,4095,2916,3303,0
37632,2861,2253,2833,3518
37862,1497,1735,3288,237
37883,702,1195,2806,4095
37903,68,694,2795,4095
37923,0,377,2968,1799
37943,40,348,2907,1373
37963,500,557,3179,1965
37983,975,882,2811,4095
38003,1363,1195,2827,4095
38023,1638,1469,2933,1167
38043,1789,1685,2923,0
38063,1863,1816,3237,679
38083,1870,1862,2815,4095
38103,1832,1861,2787,4095
38123,1785,1853,2936,1334
38143,1782,1837,2940,0
38163,1751,1812,3241,955
38183,1715,1757,2813,4095
38203,1726,1727,2779,4095
38223,1820,1768,2919,1871
38243,2089,1950,2969,0
38263,2599,2299,3353,611
38283,3303,2795,2827,4095
38303,4095,3375,2764,4095
38323,4095,3865,2871,148
38343,4095,3990,2935,0
38363,3805,3675,3404,294
38383,2623,3157,2846,3979
38403,1432,2648,2791,4095
38423,536,2219,2843,1289
38443,255,1947,2877,0
38463,494,1821,3294,871
38483,907,1752,2811,4095
38503,1336,1737,2763,4095
38523,1673,1764,2869,1606
38543,1885,1827,2920,0
38563,2027,1887,3325,781
38583,2163,1949,2825,4095
38603,2292,2003,2749,4095
38623,2343,1948,2877,1452
38643,2057,1753,2915,3
38663,1545,1484,3285,951
38683,1049,1204,2809,4095
38703,795,973,2749,4095
38723,894,849,2905,1880
38743,1175,873,2963,0
38763,1445,1019,3315,1496
38783,1625,1209,2811,4095
38803,1675,1339,2751,4095
38823,1623,1387,2917,1287
38843,1467,1362,2969,0
40446,1263,981,3291,1263
40467,1533,1231,2917,4095
40487,1707,1471,2838,3481
40507,1879,1799,2925,0
40527,2023,2043,2953,0
40547,2100,2229,3143,1910
40567,2089,2271,2841,4095
40587,2005,2212,2887,3257
40607,1901,2073,2915,191
40627,1659,1768,2938,55
40647,1295,1419,3060,2749
40667,1048,1141,2861,4095
40687,1059,1148,2902,3942
40707,1391,1563,2915,367
40727,2221,2359,2951,0
40747,3435,3416,3207,1495
40767,4095,4095,2841,3236
40787,4095,4095,2787,2893
40807,4095,4095,2953,0
40827,4095,4095,2992,0
40847,4095,4095,3183,1645
40867,4095,4095,2837,4095
40887,4095,4095,2779,3483
40907,4095,4095,2900,0
40927,3351,2520,2901,0
40947,1565,941,2905,2789
40967,82,0,2797,4095
40987,0,0,2856,4095
41007,0,0,2917,1501
41027,0,0,2924,1071
41047,0,0,2956,3373
41067,0,0,2919,4095
41087,0,0,2889,3794
41107,0,0,2904,887
41127,0,477,2931,0
41147,365,1093,3052,2341
41167,793,1526,2967,4095
41187,1193,1817,2857,3302
41207,1578,1976,2927,0
41227,1900,2037,2943,0
41247,2111,2107,3093,1805
41267,2257,2194,2845,4095
41287,2300,2284,2891,3861
41307,2339,2411,2904,1465
41327,2367,2520,2981,0
41347,2374,2590,3103,1726
41367,2346,2611,2823,4095
41387,2284,2588,2791,3081
41407,2239,2556,2988,0
41427,2151,2501,2953,0
41756,4095,4095,2903,0
41776,4095,4095,2931,0
41796,4095,4095,3453,799
41816,3910,3451,2874,4095
41836,2966,2655,2771,4095
41856,1791,1993,2845,1320
41876,615,1450,2872,107
41896,0,1045,3161,2057
41916,0,791,2799,4095
41936,0,733,2773,4095
41956,0,843,2967,1769
41976,581,1061,2915,83
41996,1763,1305,3301,1513
42016,2719,1529,2807,4095
42036,3315,1684,2825,4095
42056,3592,1747,2920,948
42076,3477,1651,2918,0
42096,3102,1445,3287,1453
42116,2628,1207,2815,4095
42136,2023,995,2821,4095
42156,1124,795,2891,1221
42176,267,665,2931,0
42196,0,617,3221,1525
42216,0,695,2827,4095
42236,0,934,2914,4095
42256,0,1271,2905,799
42276,715,1608,2943,0
42296,1373,1839,3319,1103
42316,1829,1959,2807,4095
42336,2025,1949,2791,4095
42356,1869,1884,2972,521
42376,1311,1811,2919,0
42396,938,1767,3319,1245
42416,966,1715,2829,4095
42436,1173,1694,2799,4095
42456,1301,1689,2966,819
42476,1100,1726,2917,0
42496,953,1897,3317,1683
42516,1212,2327,2827,4095
42536,1982,2996,2773,3976
42556,3101,3987,2899,0
42576,4095,4095,3013,0
42596,4095,4095,3415,611
42616,4095,4095,2863,3508
42636,4095,4095,2788,3706
42656,4095,4095,2833,74
42676,4095,4095,2901,0
42696,4095,3751,3353,791
42716,4095,2461,2847,4095
42736,4095,1199,2776,4095
44555,4095,4095,2837,157
44575,4095,4095,2907,0
44595,4095,4095,3525,118
44615,4095,4011,2859,3221
44635,4095,2867,2769,4095
44655,3481,2116,2869,1197
44675,2797,1634,2859,0
44695,2375,1443,3366,953
44715,2125,1454,2810,4095
44735,2031,1607,2759,4095
44755,2075,1831,2891,1623
44775,2267,2093,2923,0
44795,2491,2350,3437,631
44815,2761,2537,2813,4095
44835,3097,2662,2760,4095
44855,3387,2687,2863,1419
44875,3509,2613,2924,0
44895,3310,2431,3435,729
44915,2911,2172,2811,4095
44935,2387,1864,2745,4095
44955,1863,1530,2844,1747
44975,1388,1273,2937,0
44995,1001,1157,3304,1211
45015,557,1163,2791,4095
45035,93,1141,2773,4095
45055,0,1111,2943,1855
45075,0,1149,2902,165
45095,0,1303,3321,1016
45115,0,1525,2797,4095
45135,0,1779,2789,4095
45155,0,1988,2957,2040
45175,0,2107,2921,0
45195,0,2084,3374,680
45215,148,1867,2804,4095
45235,549,1513,2765,4095
45255,826,1097,2932,1423
45275,895,923,2899,0
45295,916,869,3315,1097
45315,915,846,2793,4095
45335,916,892,2807,4095
45355,1114,979,2903,1789
45375,1511,1075,2927,24
45395,1944,1129,3403,1259
45415,2278,1242,2793,4095
45435,2553,1558,2791,4095
45455,2894,2027,2955,825
45475,3415,2577,2925,0
45495,4095,3055,3491,253
45515,4095,3401,2838,3093
45535,4095,3541,2748,3719
47219,2432,1161,2820,3307
47240,2924,1865,2899,0
47260,3429,2539,3412,0
47280,3949,3117,2935,2067
47300,4095,3481,2839,4019
47320,4095,3627,2791,1995
47340,4095,3592,2906,0
47360,3884,3353,3455,0
47380,3415,3049,2931,2503
47400,2995,2741,2816,4095
47420,2639,2427,2794,2460
47440,2351,2140,2872,0
47460,2137,1863,3349,25
47480,1993,1605,2843,3467
47500,1916,1381,2803,4095
47520,1919,1227,2797,2861
47540,2078,1161,2919,261
47560,2327,1349,3323,170
47580,2591,1391,2809,3461
47600,2643,1325,2823,4095
47620,2379,1197,2843,2771
47640,2135,1083,2894,0
47660,2037,933,3291,53
47680,2009,873,2799,4095
47700,2045,1013,2823,4095
47720,2131,1285,2876,2494
47740,2247,1581,2904,0
47760,2323,1789,3323,0
47780,2324,1880,2857,3064
47800,2227,1811,2814,4095
47820,2037,1486,2831,2542
47840,1626,1061,2908,0
47860,999,789,3258,151
47880,481,698,2794,4095
47900,358,851,2851,4095
47920,621,1225,2904,3003
47940,1051,1771,2879,55
47960,1571,2346,3385,59
47980,2096,2869,2877,2931
48000,2693,3453,2835,4095
48020,3427,4095,2793,1531
48040,4095,4095,2932,0
48060,4095,4095,3470,0
48080,4095,4095,2927,2359
48100,4095,4095,2845,3959
48120,4095,4095,2823,1721
48140,4095,4095,2897,0
48160,4095,4095,3483,0
48180,4095,4095,2935,2650
48200,4095,3631,2851,4095
48410,1631,925,3291,695
48431,1593,1127,2805,4095
48451,1235,1327,2773,4095
48471,757,1605,2911,1957
48491,255,1845,2985,1959
48511,0,1951,3333,1066
48531,0,1959,2815,4095
48551,0,1877,2771,4095
48571,0,1783,2885,1276
48591,319,1692,2973,0
48611,902,1607,3293,1001
48631,1395,1511,2805,4095
48651,1767,1415,2771,4095
48671,1994,1322,2932,1373
48691,2099,1256,2885,0
48711,2151,1223,3350,1243
48731,2219,1257,2794,4095
48751,2391,1453,2776,4095
48771,2735,1951,2963,1133
48791,3325,2744,2901,0
48811,4095,3879,3507,213
48831,4095,4095,2848,2972
48851,4095,4095,2777,3351
48871,4095,4095,2839,0
48891,4095,4095,2955,0
48911,4095,4095,3509,362
48931,3353,4095,2876,3357
48951,2671,4095,2788,4095
48971,2514,4095,2854,444
48991,2648,4095,2909,0
49011,2891,3467,3439,733
49031,3125,2749,2833,4095
49051,3338,2262,2763,4095
49071,3435,1962,2808,1391
49091,3401,1819,2869,0
49111,3195,1800,3303,1434
49131,2914,1833,2806,4095
49151,2451,1845,2757,4095
49171,1782,1843,2851,1510
49191,1170,1815,2939,0
49211,775,1715,3274,1439
49231,591,1561,2793,4095
49251,549,1421,2767,4095
49271,589,1355,2953,1459
49291,662,1373,2879,0
49311,744,1448,3255,3067
49331,792,1471,2803,4095
49351,799,1480,2794,4095
49371,939,1555,2973,1141
49391,1211,1624,2910,0
49596,2431,2283,2809,3576
49617,2707,3064,2837,4095
49637,2838,4095,2859,661
49657,2965,4095,2949,0
49677,3031,4095,3578,0
49697,2983,4095,2842,2869
49717,2772,4095,2828,3987
49737,2451,4095,2843,980
49757,2157,4095,2889,0
49777,1887,4095,3524,153
49797,1806,3567,2844,3470
49817,2022,2510,2815,4095
49837,2375,1853,2828,1845
49857,2732,1509,2872,0
49877,3054,1422,3353,825
49897,3305,1545,2793,4095
49917,3463,1801,2805,4095
49937,3596,2151,2863,1721
49957,3564,2491,2953,0
49977,3417,2735,3469,475
49997,3157,2795,2811,4095
50017,2905,2697,2804,4095
50037,2445,2478,2843,1567
50057,1851,2194,2926,0
50077,1418,1836,3359,811
50097,1311,1484,2802,4095
50117,1559,1211,2775,4095
50137,2025,1061,2923,2023
50157,2535,1020,2889,101
50177,3083,1065,3375,1000
50197,3628,1102,2790,4095
50217,4095,1171,2795,4095
50237,4095,1255,2985,2142
50257,4095,1329,2899,2156
50277,4095,1379,3422,917
50297,4095,1403,2792,4095
50317,4095,1383,2788,4095
50337,3400,1343,2973,1440
50357,2199,1253,2907,0
50377,755,1162,3349,763
50397,0,1081,2792,4095
50417,0,983,2851,4095
50437,0,941,2900,1927
50457,0,971,2931,25
50477,0,1079,3389,1095
50497,0,1237,2799,4095
50517,0,1527,2831,4095
50537,860,2042,2909,1413
50557,2247,2824,2915,0
50577,3660,3869,3571,111
52161,2366,1495,3038,2415
52182,2205,1525,2823,4095
52202,1897,1420,2861,2871
52222,1451,1300,2866,0
52242,927,1187,3230,0
52262,367,1129,2789,4095
52282,0,1095,2844,4095
52302,0,1094,2941,2779
52322,0,1175,2895,0
52342,0,1316,3259,0
52362,0,1507,2843,3136
52382,0,1645,2859,4095
52402,0,1805,2919,2633
52422,0,1929,2877,0
52442,499,2007,3299,0
52462,1247,2001,2872,3129
52482,1765,1935,2827,4095
52502,2020,1849,2855,2936
52522,2053,1800,2897,292
52542,1892,1884,3289,63
52562,1739,2245,2895,3096
52582,1836,2942,2825,4095
52602,2139,4095,2798,1769
52622,2443,4095,2923,0
52642,2475,4095,3443,0
52662,2104,4095,2971,2189
52682,1647,4095,2839,4095
52702,1559,4095,2796,2039
52722,1719,4095,2899,0
52742,2009,4095,3448,0
52762,2347,4095,2935,2659
52782,2619,4095,2835,4095
52802,2743,4095,2803,2442
52822,2775,3719,2885,0
52842,2717,2313,3353,0
52862,2670,1381,2823,3980
52882,2684,919,2794,4095
52902,2775,925,2794,3102
52922,2879,1317,2905,616
52942,2935,1831,3339,245
52962,2861,2265,2844,3613
52982,2713,2543,2815,4095
53002,2525,2669,2807,2584
53022,2297,2679,2916,0
53042,2059,2526,3345,23
53062,1831,2248,2816,3431
53082,1597,1870,2807,4095
53102,1419,1500,2823,2811
53122,1295,1235,2941,461
53142,1263,1079,3257,541
54844,4095,4095,3021,2201
54865,4095,2739,2840,4095
54885,4095,1565,2788,2651
54905,2409,861,2859,564
54925,1189,604,3187,1011
54945,603,649,2779,4095
54965,535,857,2823,4095
54985,891,1119,2904,2789
55005,1617,1396,2866,292
55025,2449,1611,3339,232
55045,3082,1767,2765,3836
55065,3429,1839,2827,4095
55085,3531,1869,2899,2491
55105,3400,1849,2887,0
55125,3058,1765,3367,184
55145,2586,1625,2783,3817
55165,2034,1429,2834,4095
55185,1327,1267,2923,2600
55205,638,1203,2879,148
55225,170,1179,3301,341
55245,1,1139,2803,4095
55265,119,1084,2856,4095
55285,503,1071,2887,2438
55305,957,1141,2921,0
55325,1371,1273,3349,1213
55345,1659,1392,2777,4095
55365,1853,1465,2868,4095
55385,2011,1467,2949,1961
55405,2104,1407,2903,0
55425,2135,1323,3346,163
55445,2123,1189,2763,3737
55465,2072,1095,2867,4095
55485,1997,1076,2887,2446
55505,1946,1113,2909,0
55525,1914,1183,3335,307
55545,1867,1239,2763,4095
55565,1771,1254,2891,4095
55585,1625,1273,2895,2708
55605,1482,1375,2937,0
55625,1257,1565,3366,181
55645,1287,1881,2781,3127
55665,1577,2393,2869,4095
55685,1932,3067,2936,1243
55705,2129,3859,2919,0
55725,2003,4095,3468,0
55745,1612,4095,2842,2393
55765,1235,4095,2835,3957
55785,1045,4095,2828,1367
55805,1039,3559,2887,0
55825,1127,2908,3405,57
65239,3108,1746,3417,698
65259,3077,1516,2833,3574
65279,2645,1422,2843,4095
65299,2078,1620,2899,2360
65319,1748,2183,2888,0
65339,1725,2949,3339,0
65359,1741,3847,2985,1911
65379,1485,4095,2831,3605
65399,818,4095,2799,1765
65419,297,4095,2911,0
65439,183,4095,3364,0
65459,431,4095,2953,2362
65479,865,3587,2837,4095
65499,1389,2899,2795,2408
65519,1821,2361,2872,0
65539,1785,1896,3252,23
65559,1515,1208,2821,4031
65579,1287,453,2791,4095
65599,1115,0,2859,3261
65619,1291,0,2859,935
65639,1709,0,3192,845
65659,2235,246,2787,4095
65679,2743,647,2870,4095
65699,3193,903,2875,2813
65719,3498,1023,2889,0
65739,3473,1045,3299,0
65759,3095,967,2809,3567
65779,2611,965,2888,4095
65799,2169,1020,2875,2715
65819,1854,1113,2904,0
65839,1631,1171,3311,12
65859,1533,1299,2838,3341
65879,1676,1567,2869,4095
65899,1944,1875,2935,2359
65919,2151,2163,2917,0
65939,2187,2351,3391,0
65959,2035,2444,2879,2623
65979,1733,2440,2831,4095
65999,1351,2357,2863,3517
66019,1017,2221,2908,0
66039,815,1989,3346,0
66059,761,1715,2812,3375
66079,859,1453,2831,4095
66099,1035,1311,2877,2621
66119,1247,1295,2869,0
66139,1465,1379,3311,61
66159,1645,1513,2823,3349
66179,1739,1637,2835,4095
66199,1717,1741,2880,2724
66219,1383,1814,2889,135
78321,2493,2327,3419,475
78341,2941,2667,2804,2759
78361,3205,2807,2825,4095
78381,3277,2839,2837,1597
78401,3263,2741,2941,0
78421,3128,2549,3382,0
78441,2949,2301,2791,3175
78461,2649,2072,2811,4095
78481,2300,1893,2853,2247
78501,1966,1747,2934,0
78521,1711,1623,3297,217
78541,1520,1470,2773,3667
78561,1413,1353,2833,4095
78581,1293,1396,2895,2232
78601,1204,1621,2861,0
78621,1147,1899,3351,141
78641,1150,2163,2795,3404
78661,1207,2381,2835,4095
78681,1339,2517,2870,1831
78701,1583,2569,2943,0
78721,1845,2513,3359,0
78741,2041,2365,2809,3258
78761,2103,2149,2815,4095
78781,2036,1941,2845,2157
78801,1883,1742,2958,0
78821,1610,1619,3339,232
78841,1305,1580,2790,3919
78861,1035,1581,2807,4095
78881,829,1621,2879,2319
78901,813,1675,2878,0
78921,1017,1699,3355,302
78941,1387,1689,2747,4095
78961,1779,1595,2793,4095
78981,2163,1372,2931,2261
79001,2519,1157,2891,0
79021,2813,1039,3251,357
79041,3001,1075,2771,4095
79061,3031,1227,2863,4095
79081,2964,1453,2957,2319
79101,2877,1717,2891,0
79121,2788,1861,3364,205
79141,2687,1877,2777,3965
79161,2552,1783,2841,4095
79181,2407,1663,2905,2607
79201,2263,1625,2857,307
79221,2095,1691,3337,317
79241,1831,1834,2777,3679
79261,1507,2059,2840,4095
79281,1400,2323,2897,1779
79301,1563,2557,2888,0
86401,2807,2302,2907,0
86421,3449,2783,3363,425
86441,3804,2988,2786,4095
86461,3975,2901,2839,4095
86481,4027,2599,2876,2213
86501,4015,2099,2892,0
86521,3933,1371,3311,685
86541,3710,569,2760,4095
86561,3339,3,2915,4095
86581,2855,0,2876,2605
86601,2159,41,2915,821
86621,1453,439,3305,876
86641,969,905,2809,4095
86661,700,1402,2875,4095
86681,531,1914,2910,1851
86701,409,2311,2954,0
86721,211,2555,3447,69
86741,0,2643,2791,3240
86761,0,2557,2873,4095
86781,0,2395,2936,3179
86801,0,2205,2931,0
86821,0,2057,3388,298
86841,299,1941,2766,4095
86861,1108,1876,2886,4095
86881,1863,1847,2889,1943
86901,2439,1853,2939,0
86921,2791,1855,3411,213
86941,2919,1871,2769,4095
86961,2863,1879,2886,4095
86981,2719,1869,2899,2138
87001,2523,1835,2943,36
87021,2351,1805,3383,569
87041,2232,1820,2770,4095
87061,2271,1951,2867,4095
87081,2605,2247,2918,1917
87101,3288,2694,2935,0
87121,4095,3227,3483,0
87141,4095,3754,2823,2724
87161,4095,4087,2829,4059
87181,4095,4089,2838,1000
87201,4095,3853,2953,0
87221,4095,3453,3475,0
87241,4095,3017,2815,3311
87261,4095,2585,2797,4095
87281,4095,1917,2831,1894
87301,4095,933,2963,213
87321,4095,123,3224,999
87341,4095,0,2766,4095
87361,3571,0,2901,4095
87381,1817,0,2917,2508
91655,1503,2651,3133,1675
91675,1613,2348,2799,4095
91695,1469,1827,2751,4095
91715,1197,1175,2943,1615
91735,760,620,2876,212
91755,331,319,3215,1929
91775,26,314,2799,4095
91795,31,523,2885,4095
91815,531,877,2920,1485
91835,1205,1320,2917,0
91855,1947,1753,3399,957
91875,2583,2066,2797,4095
91895,2973,2227,2835,4095
91915,3146,2169,2907,1141
91935,3052,1823,2922,0
91955,2807,1395,3293,1069
91975,2487,1099,2799,4095
91995,2220,923,2853,4095
92015,2099,857,2936,1343
92035,2039,851,2927,0
92055,2053,957,3324,1264
92075,2085,1262,2811,4095
92095,2148,1687,2860,4095
92115,2173,2100,2915,1165
92135,2139,2407,2954,0
92155,2027,2611,3419,1067
92175,1917,2703,2795,4095
92195,1915,2658,2787,4095
92215,1992,2271,2971,617
92235,2216,1880,2893,0
92255,2485,1663,3301,873
92275,2715,1689,2789,4095
92295,3192,2086,2805,4095
92315,3879,2720,2942,439
92335,4095,3279,2902,0
92355,4095,3611,3467,351
92375,4095,3596,2813,3432
92395,4095,3336,2744,3996
92415,3439,2776,2901,629
92435,2493,1951,2955,0
92455,1581,1151,3251,1400
92475,865,701,2794,4095
92495,444,773,2805,4095
92515,249,1300,2905,1383
92535,223,2031,2935,0
92555,447,2681,3384,807
92575,1093,3131,2803,4092
92595,1991,3289,2762,4095
92615,2858,3133,2931,587
92635,3646,2556,2925,0
94234,4095,3449,2971,0
94255,4095,3069,3349,529
94275,4095,2712,2815,3885
94295,4095,2676,2761,4095
94315,4095,2855,2921,537
94335,4095,3048,2975,0
94355,3983,3155,3349,679
94375,3417,3117,2812,4025
94395,2919,2927,2743,4095
94415,2487,2679,2897,670
94435,2013,2268,2951,0
94455,1378,1691,3211,1421
94475,921,1235,2796,4095
94495,927,1085,2796,4095
94515,1415,1369,2907,1385
94535,2122,1915,2931,0
94555,2787,2427,3294,1148
94575,3291,2793,2815,4095
94595,3528,2952,2765,4095
94615,3415,2927,2941,623
94635,3060,2735,2925,0
94655,2607,2322,3271,1113
94675,1993,1587,2794,4095
94695,1501,867,2792,4095
94715,1299,399,2898,1499
94735,1429,219,2914,365
94755,1912,280,3187,3049
94775,2541,505,2844,4095
94795,3077,843,2821,4095
94815,3271,1175,2907,950
94835,2989,1374,2932,0
94855,2295,1478,3253,1047
94875,1229,1515,2839,4095
94895,213,1498,2879,4095
94915,0,1491,2931,888
94935,0,1645,2939,0
94955,0,1929,3305,1339
94975,0,2163,2812,4095
94995,0,2314,2835,4095
95015,0,2379,2905,1125
95035,0,2377,2951,0
95055,0,2351,3301,1083
95075,168,2237,2799,4095
95095,1363,2100,2813,4095
95115,2511,2137,2901,537
95135,3527,2285,2909,0
95155,4095,2443,3311,761
95175,4095,2645,2823,3849
95195,4095,2952,2777,3803
95215,3400,3213,2941,107
96749,2091,2251,2909,339
96770,2002,1868,3273,188
96790,1870,1548,2787,3686
96810,1862,1693,2887,4095
96830,2220,2429,2891,1822
96850,3142,3577,2921,0
96870,4095,4095,3422,0
96890,4095,4095,2901,2005
96910,4095,4095,2827,3689
96930,4095,4095,2804,1638
96950,4095,4095,2919,0
96970,4095,4095,3351,0
96990,4095,4095,2872,2525
97010,4095,3516,2827,4095
97030,4095,2356,2788,2444
97050,4095,1499,2906,33
97070,2211,876,3189,680
97090,761,503,2758,4095
97110,0,625,2843,4095
97130,0,1127,2873,2835
97150,0,1746,2903,212
97170,685,2269,3293,89
97190,1465,2578,2809,3319
97210,1989,2677,2845,4095
97230,1963,2551,2921,2335
97250,1704,2223,2888,0
97270,1228,1753,3241,101
97290,691,1317,2761,4079
97310,149,1060,2903,4095
97330,0,1111,2916,2822
97350,167,1357,2913,85
97370,653,1641,3319,137
97390,1261,1846,2783,3563
97410,1803,1927,2919,4095
97430,2205,1927,2875,3401
97450,2515,1756,2899,1230
97470,2725,1403,3272,87
97490,2796,1097,2763,3796
97510,2711,950,2925,4095
97530,2536,1013,2899,2509
97550,2325,1214,2893,0
97570,2025,1447,3308,175
97590,1595,1587,2791,3573
97610,965,1655,2919,4095
97630,345,1644,2921,2441
97650,20,1578,2913,0
97670,0,1492,3295,279
97690,0,1430,2787,4095
97710,0,1589,2943,4095
97730,184,2125,2937,2287
98364,0,0,2909,1549
98385,0,157,2895,269
98405,20,534,3217,2139
98425,519,1019,2875,4095
98445,1107,1439,2874,4095
98465,1593,1657,2920,1716
98485,1832,1673,2903,0
98505,1807,1429,3205,1388
98525,1589,1103,2921,4095
98545,1365,837,2869,4095
98565,1018,718,2927,565
98585,749,711,2908,0
98605,734,832,3211,1789
98625,965,1051,2932,4095
98645,1311,1275,2866,4041
98665,1637,1421,2957,631
98685,1769,1495,2915,0
98705,1683,1479,3183,1919
98725,1493,1414,2901,4095
98745,1419,1464,2828,3853
98765,1510,1727,2950,43
98785,1595,2219,2917,0
98805,2013,2815,3302,827
98825,2763,3491,2854,3445
98845,3736,4095,2811,2909
98865,4095,4095,2987,0
98885,4095,4095,2941,2
98905,4095,3544,3277,939
98925,4095,2940,2809,4095
98945,3551,2398,2761,3759
98965,2391,1933,2969,424
98985,1316,1593,2887,0
99005,359,1427,3147,2099
99025,0,1437,2815,4095
99045,0,1621,2845,4091
99065,367,1925,2926,728
99085,1193,2207,2931,0
99105,2107,2399,3229,1743
99125,2867,2463,2812,4095
99145,3353,2405,2825,3859
99165,3527,2217,2899,395
99185,3209,1940,2953,0
99205,2487,1636,3181,1816
99225,1619,1525,2827,4095
99245,790,1688,2859,3935
99265,153,1963,2920,669
99285,0,2215,2964,0
99305,0,2391,3215,1737
99325,0,2432,2823,4095
99345,0,2329,2825,3855
100904,4095,1829,3251,1359
100925,4095,1567,2805,4095
100945,3145,1341,2875,3539
100965,1671,1289,2936,429
100985,563,1335,2933,0
101005,0,1541,3101,2124
101025,0,1779,2847,4095
101045,0,2005,2920,3437
101065,0,2247,2953,54
101085,0,2480,2935,0
101105,0,2702,3131,1763
101125,190,2841,2807,4095
101145,683,2867,2811,3385
101165,1136,2719,2937,0
101185,1460,2437,2919,0
101205,1645,2101,3083,2147
101225,1671,1783,2807,4095
101245,1593,1533,2825,3785
101265,1445,1419,2901,697
101285,1239,1365,2941,0
101305,1015,1385,3076,2437
101325,853,1419,2813,4095
101345,911,1517,2889,3660
101365,1163,1653,2921,315
101385,1477,1779,2938,0
101405,1805,1886,3103,2862
101425,2044,1939,2828,4095
101445,2197,1965,2854,3544
101465,2275,1965,2900,0
101485,2259,1931,2961,0
101505,2173,1851,3096,2106
101525,2025,1763,2811,4095
101545,1861,1646,2853,3644
101565,1719,1559,2903,367
101585,1523,1471,2931,0
101605,1390,1456,3079,2506
101625,1399,1541,2831,4095
101645,1500,1679,2875,3877
101665,1685,1850,2925,805
101685,1933,2043,2989,0
101705,2282,2299,3108,2291
101725,2711,2629,2793,4095
101745,3276,3039,2812,3131
101765,3757,3369,2981,0
101785,3921,3595,2932,0
101805,3508,3579,3159,1355
101825,2903,3427,2791,4095
101845,2540,3293,2751,3119
101865,2441,3193,2905,0
101885,2487,3076,2973,0
103416,1464,1637,2916,0
103437,1445,1565,3347,1183
103457,1381,1481,2789,4095
103477,1327,1463,2809,4095
103497,1365,1533,2901,1125
103517,1378,1642,2931,0
103537,1432,1709,3376,1176
103557,1465,1727,2796,4095
103577,1480,1753,2823,4095
103597,1479,1771,2887,1481
103617,1513,1821,2919,211
103637,1605,1927,3389,1247
103657,1747,2056,2795,4095
103677,1893,2233,2808,4087
103697,2003,2376,2963,483
103717,1963,2489,2901,0
103737,2100,2647,3428,680
103757,2403,2775,2806,3614
103777,2735,2847,2745,3836
103797,3034,2854,2921,557
103817,3247,2750,2967,0
103837,3463,2517,3377,805
103857,3742,2073,2797,4095
103877,3977,1604,2765,4095
103897,4095,1287,2964,1491
103917,4095,1229,2885,141
103937,4095,1397,3340,1468
103957,4095,1767,2796,4095
103977,4095,2173,2773,4095
103997,4095,2526,2997,917
104017,4095,2687,2920,0
104037,4095,2641,3375,867
104057,4095,2429,2823,4095
104077,4095,2125,2757,4095
104097,2775,1843,2937,861
104117,1727,1593,2917,0
104137,1109,1445,3317,1399
104157,719,1389,2795,4095
104177,373,1415,2791,4095
104197,18,1495,2981,1245
104217,0,1598,2899,0
104237,0,1691,3324,1629
104257,0,1758,2790,4095
104277,0,1823,2793,4095
104297,239,1869,2938,955
104317,665,1886,2911,43
104337,1049,1891,3363,1035
104357,1353,1875,2805,4095
104377,1517,1861,2793,4095
104397,1640,1847,2931,927
