time_ms,pointer,middle,ring,pinkie,ecg
0,557,606,936,453
9,719,728,939,583
19,726,723,935,582
29,722,727,935,588
39,727,725,934,596
49,724,725,937,590
58,724,729,935,592
68,725,731,933,594
78,722,726,938,590
88,729,724,932,600
97,724,733,929,594
107,727,731,934,601
117,728,725,937,604
127,723,729,936,599
136,726,730,934,603
146,726,728,938,601
156,729,727,934,600
166,725,729,935,598
175,722,729,940,595
185,730,724,936,599
195,728,728,931,607
205,729,731,929,603
215,729,729,931,602
224,729,725,934,602
234,724,727,935,603
244,724,731,926,603
254,729,731,935,609
263,727,733,932,604
273,730,727,937,602
283,724,727,931,606
293,725,730,935,600
302,728,727,937,597
312,728,732,932,604
322,727,726,937,598
332,724,731,930,603
341,728,728,932,607
351,728,731,934,610
361,728,727,938,607
371,726,729,929,606
381,725,732,928,603
390,727,730,933,606
400,726,733,929,609
410,726,727,936,606
420,725,734,927,602
429,728,726,934,606
439,729,723,931,603
449,724,729,937,602
459,727,728,937,600
468,729,731,929,606
478,729,728,930,603
488,724,730,936,599
498,726,728,936,599
508,731,726,934,608
517,725,727,939,601
527,729,735,931,606
537,728,729,936,609
547,726,725,935,608
556,726,731,935,600
566,726,732,939,601
576,729,731,934,613
586,729,727,937,610
595,729,732,934,608
605,729,731,934,608
615,728,733,929,603
625,728,734,933,607
634,729,727,934,606
644,726,729,933,600
654,727,728,930,608
664,728,728,932,608
674,728,727,935,603
683,728,732,933,599
693,724,731,934,604
703,728,734,934,604
713,727,733,929,604
722,729,729,934,607
732,731,726,930,607
742,728,731,934,604
752,730,732,933,606
761,725,728,938,611
771,725,729,938,599
781,728,730,934,601
791,730,729,934,609
800,725,732,938,600
810,727,727,938,599
820,726,728,937,599
830,726,729,941,602
840,728,731,940,601
849,729,737,933,605
859,724,730,938,600
869,725,725,932,610
879,728,728,938,599
888,728,735,934,609
898,726,732,935,602
908,727,730,939,602
918,724,730,937,600
927,723,728,936,600
937,727,730,939,599
947,730,728,933,605
957,729,729,942,597
966,728,727,933,605
996,599,611,933,455
1006,723,731,930,590
1015,727,730,928,592
1025,728,729,933,599
1035,727,734,931,597
1045,724,730,938,595
1054,729,732,931,598
1064,727,734,931,600
1074,725,730,934,604
1084,729,728,934,603
1093,729,725,935,600
1103,728,733,932,606
1113,732,726,933,602
1123,728,733,931,604
1133,723,727,937,601
1142,727,731,931,604
1152,727,727,938,599
1162,726,736,928,595
1172,726,730,940,600
1181,732,728,933,607
1191,730,727,931,608
1201,725,733,935,599
1211,729,729,934,605
1220,723,730,939,601
1230,723,729,940,598
1240,728,731,937,599
1250,724,733,935,599
1259,723,730,936,604
1269,724,731,938,599
1279,724,730,939,599
1289,724,730,935,602
1299,732,731,931,607
1308,731,727,933,608
1318,727,733,931,608
1328,728,732,935,602
1338,729,728,932,608
1347,723,728,929,607
1357,723,732,941,600
1367,728,733,936,601
1377,724,732,935,601
1386,722,732,938,598
1396,725,728,938,600
1406,729,733,930,608
1416,725,731,940,601
1425,725,732,932,600
1435,724,733,933,599
1445,724,731,931,603
1455,724,728,935,602
1465,728,730,934,604
1474,731,731,934,603
1484,731,725,936,598
1494,727,734,933,603
1504,728,727,932,606
1513,729,727,934,607
1523,726,734,930,603
1533,729,731,930,601
1543,729,732,932,608
1552,726,727,935,605
1562,724,733,938,599
1572,728,732,940,600
1582,729,734,930,606
1591,725,732,936,601
1601,725,729,938,601
1611,726,731,940,600
1621,727,730,941,600
1631,728,733,931,607
1640,729,731,931,610
1650,726,733,928,606
1660,729,734,933,605
1670,725,735,930,607
1679,726,732,931,606
1689,726,731,934,602
1699,726,728,938,600
1709,730,734,932,608
1718,724,730,935,607
1728,726,729,935,602
1738,725,732,941,601
1748,727,736,929,605
1758,732,726,937,609
1767,727,733,940,599
1777,731,731,929,603
1787,726,730,937,600
1797,727,732,932,603
1806,729,725,937,605
1816,728,735,931,599
1826,725,731,932,598
1836,730,727,936,609
1845,724,732,942,602
1855,728,733,931,605
1865,727,732,936,602
1875,725,733,936,601
1884,722,731,938,600
1894,729,729,935,598
1904,724,734,936,606
1914,726,731,939,602
1924,725,733,938,600
1933,726,736,933,609
1943,725,734,928,605
1953,727,733,935,602
1963,728,729,941,599
1992,631,634,934,484
2002,723,730,932,590
2011,726,724,935,596
2021,724,732,931,595
2031,727,729,930,597
2041,730,725,936,600
2050,725,732,938,596
2060,725,732,939,600
2070,729,727,935,605
2080,728,728,936,604
2090,727,728,928,595
2099,729,733,929,599
2109,730,732,933,605
2119,729,731,930,606
2129,723,731,936,600
2138,726,732,930,600
2148,722,729,940,597
2158,726,733,936,602
2168,728,726,934,606
2177,728,734,930,602
2187,726,732,940,597
2197,730,734,936,601
2207,725,732,934,601
2216,724,735,931,605
2226,727,729,937,603
2236,724,729,939,598
2246,729,734,930,605
2256,723,728,939,599
2265,725,730,938,600
2275,731,731,926,604
2285,726,733,932,599
2295,727,731,943,602
2304,732,727,930,601
2314,726,730,935,602
2324,728,731,928,602
2334,731,727,932,607
2343,723,727,935,601
2353,726,729,939,598
2363,724,729,936,597
2373,727,732,931,604
2383,727,731,934,600
2393,730,728,936,597
2403,729,730,928,604
2413,728,731,934,602
2423,725,733,938,598
2432,726,730,935,600
2442,725,731,933,602
2452,726,730,935,602
2462,726,731,932,601
2471,727,732,938,602
2481,731,729,930,608
2491,726,729,937,599
2501,732,731,931,608
2510,726,732,933,603
2520,729,736,928,600
2530,730,729,934,603
2540,732,731,929,607
2549,724,730,937,606
2559,725,731,936,599
2569,729,725,927,602
2579,730,727,933,604
2589,728,735,928,606
2598,728,734,934,602
2608,724,731,938,600
2618,732,726,937,604
2628,723,728,933,608
2637,723,732,934,602
2647,728,733,929,607
2657,729,730,935,599
2667,724,728,941,601
2676,727,730,940,599
2686,728,731,932,603
2696,727,734,928,606
2706,731,725,931,608
2716,729,733,926,603
2725,723,731,938,599
2735,727,731,928,602
2745,730,737,932,610
2755,727,734,931,611
2764,729,735,933,606
2774,727,727,938,600
2784,725,731,937,601
2794,728,735,932,608
2803,727,734,930,605
2813,724,732,934,597
2823,726,732,938,602
2833,723,731,937,600
2842,728,733,930,605
2852,728,729,932,606
2862,729,728,932,609
2872,726,729,935,603
2882,725,732,941,601
2891,724,732,938,601
2901,727,725,935,601
2911,726,733,937,597
2921,730,731,937,605
2930,727,735,932,606
2940,725,733,936,599
2950,731,729,934,601
2960,727,728,939,599
2989,628,636,936,474
2999,726,734,929,596
3008,725,732,932,596
3018,728,732,931,597
3028,726,730,933,599
3038,727,731,933,600
3048,728,728,936,598
3057,726,734,927,603
3067,730,727,937,596
3077,723,732,939,600
3087,731,729,932,605
3096,726,731,938,599
3106,730,732,937,597
3116,729,732,935,605
3126,727,729,939,596
3135,729,735,933,600
3145,724,730,937,600
3155,731,730,932,607
3165,728,726,936,601
3174,731,731,933,607
3184,727,733,928,598
3194,725,735,933,608
3204,729,732,934,607
3214,728,728,935,603
3223,728,734,929,602
3233,725,734,931,600
3243,728,736,933,609
3253,728,736,929,606
3262,727,734,934,598
3272,730,734,930,606
3282,729,731,929,606
3292,724,726,929,606
3301,728,736,934,605
3311,730,729,938,601
3321,725,730,935,601
3331,729,728,937,599
3341,729,732,929,602
3350,728,726,937,604
3360,732,728,934,606
3370,729,732,939,600
3380,724,732,936,597
3390,729,726,936,599
3400,732,727,932,609
3410,728,734,929,608
3420,725,727,931,606
3429,724,730,937,608
3439,726,733,930,603
3449,728,733,933,607
3459,725,733,931,603
3468,726,730,930,602
3478,725,734,927,603
3488,727,731,930,606
3498,729,727,938,606
3508,732,729,934,606
3517,726,732,936,599
3527,723,727,936,598
3537,728,727,937,607
3547,732,728,935,604
3556,729,730,937,604
3566,725,733,927,604
3576,730,728,932,610
3586,726,730,935,598
3595,730,729,930,605
3605,729,731,930,609
3615,724,727,937,608
3625,725,731,938,600
3634,726,729,933,605
3644,726,731,931,601
3654,730,727,936,607
3664,727,729,934,601
3674,731,728,939,605
3683,727,734,930,601
3693,727,730,932,607
3703,728,727,937,606
3713,725,734,927,601
3722,730,728,934,608
3732,732,725,938,601
3742,725,730,938,600
3752,729,734,933,608
3761,727,736,934,606
3771,727,734,929,608
3781,724,731,934,605
3791,724,729,938,600
3800,727,734,940,607
3810,730,728,932,606
3820,728,728,931,606
3830,730,730,931,603
3840,724,731,935,604
3849,733,730,931,607
3859,729,727,935,605
3869,730,729,931,607
3879,727,726,934,605
3888,730,727,935,603
3898,728,731,932,607
3908,726,725,933,604
3918,728,732,930,604
3927,730,728,938,606
3937,729,733,931,609
3947,726,731,940,599
3957,726,735,932,603
3987,627,636,939,485
3997,725,729,930,594
4007,724,735,928,593
4016,721,731,940,591
4026,728,735,932,599
4036,724,728,942,592
4046,728,730,929,593
4055,722,731,932,597
4065,727,733,931,601
4075,723,726,937,595
4085,722,719,933,598
4094,727,733,929,601
4104,725,731,934,597
4114,724,732,937,599
4124,725,724,931,603
4133,725,732,931,601
4143,730,731,932,605
4153,724,732,939,598
4163,727,735,931,604
4173,729,727,939,598
4182,729,724,935,601
4192,725,729,935,602
4202,724,733,942,599
4212,727,728,937,602
4221,730,729,931,605
4231,726,732,937,608
4241,723,728,937,599
4251,729,729,931,605
4260,726,734,932,599
4270,732,728,939,597
4280,727,731,935,610
4290,727,728,934,608
4299,729,730,933,607
4309,728,732,935,600
4319,724,730,939,597
4329,730,732,932,601
4339,732,726,933,608
4348,725,732,929,601
4358,730,730,938,598
4368,726,731,940,600
4378,723,729,939,600
4387,731,732,938,602
4397,724,733,932,602
4407,727,729,936,600
4417,727,729,932,608
4426,730,727,938,599
4436,727,731,927,599
4446,728,735,930,604
4456,729,732,932,610
4466,731,731,935,608
4475,731,732,933,610
4485,730,729,939,600
4495,724,730,941,604
4505,725,730,939,599
4514,732,728,939,602
4524,728,733,936,598
4534,725,733,933,602
4544,723,729,939,601
4553,728,732,929,607
4563,729,731,934,608
4573,723,730,936,600
4583,728,733,931,608
4592,727,735,928,600
4602,726,728,937,602
4612,725,731,928,602
4622,728,735,932,601
4632,727,731,930,603
4641,728,728,939,597
4651,727,731,939,599
4661,731,731,932,610
4671,732,728,932,607
4680,730,736,933,608
4690,726,730,937,605
4700,727,729,937,601
4710,728,733,939,599
4719,727,730,942,602
4729,728,732,936,610
4739,729,727,938,600
4749,726,731,941,599
4758,727,730,935,600
4768,726,734,932,604
4778,728,731,929,605
4788,722,728,939,602
4798,730,732,936,600
4807,727,731,928,600
4817,731,729,931,604
4827,732,728,938,603
4837,725,727,935,606
4846,728,728,938,602
4856,726,730,935,600
4866,728,734,932,605
4876,728,734,931,602
4885,727,731,933,603
4895,725,727,932,613
4905,727,729,940,599
4915,729,728,933,607
4924,729,735,928,601
4934,724,729,935,602
4944,725,734,936,602
4954,727,736,930,608
