time_ms,pointer,middle,ring,ecg
0,1547,1386,1657,781
20,1705,1516,1689,75
39,1843,1653,1691,60
58,1981,1786,1735,61
77,2133,1908,1820,59
96,2221,1973,1925,63
115,2239,1977,2014,69
134,2200,1935,2095,74
153,2078,1847,2121,70
172,1929,1720,2101,69
191,1772,1608,2052,63
210,1603,1517,1927,61
229,1480,1451,1835,59
248,1419,1425,1739,56
267,1419,1432,1639,55
286,1439,1455,1555,53
305,1487,1469,1483,53
324,1549,1502,1397,47
343,1617,1525,1349,47
362,1645,1545,1368,47
381,1659,1541,1417,45
400,1691,1523,1495,53
419,1709,1525,1561,55
438,1718,1543,1613,55
457,1727,1528,1641,57
476,1721,1486,1643,55
495,1673,1437,1635,56
514,1640,1427,1627,55
533,1653,1435,1659,53
552,1685,1523,1693,57
571,1723,1717,1757,58
590,1752,2007,1895,55
609,1738,2367,2052,71
628,1617,2824,2259,75
647,1699,3363,2489,83
666,2122,3891,2735,89
685,2671,4095,2926,97
704,3143,4095,3017,99
723,3439,3885,2987,92
742,3571,3469,2906,92
761,3575,3150,2835,88
780,3511,2989,2777,89
799,3421,3027,2773,89
818,3324,3289,2758,88
837,3207,3766,2717,87
856,2991,4095,2639,86
875,2725,4095,2485,78
894,2409,4095,2271,72
913,2043,4095,2037,62
932,1683,3517,1855,59
965,1117,2469,1671,61
984,1000,2003,1707,59
1003,886,1597,1693,57
1022,820,1297,1717,55
1041,808,1123,1737,56
1060,841,1045,1770,57
1079,907,1053,1832,60
1098,1015,1099,1861,57
1117,1147,1157,1869,60
1136,1287,1225,1869,60
1155,1391,1300,1839,60
1174,1489,1381,1839,59
1193,1561,1485,1812,61
1212,1595,1613,1813,59
1231,1643,1763,1814,60
1250,1676,1947,1828,59
1269,1705,2121,1845,60
1288,1723,2251,1864,59
1307,1739,2330,1883,57
1326,1749,2364,1887,60
1345,1739,2361,1879,60
1364,1735,2361,1871,60
1383,1721,2327,1863,59
1402,1725,2312,1869,61
1421,1734,2268,1894,61
1440,1739,2203,1913,62
1459,1703,2139,1917,69
1478,1679,2045,1930,62
1497,1645,1950,1927,63
1516,1642,1865,1930,63
1535,1677,1811,1929,61
1554,1721,1798,1945,68
1573,1779,1837,1983,71
1592,1883,1939,2041,70
1611,2069,2041,2099,71
1630,2291,2119,2149,71
1649,2457,2149,2156,71
1668,2506,2108,2149,71
1687,2423,2021,2104,69
1706,2247,1876,2015,63
1725,2024,1686,1931,63
1744,1813,1495,1835,59
1763,1640,1341,1759,57
1782,1541,1263,1704,54
1801,1495,1231,1642,59
1820,1503,1259,1637,54
1839,1555,1368,1695,57
1858,1596,1504,1789,61
1877,1628,1635,1899,63
1896,1647,1747,1992,67
1933,1661,1989,2075,77
1952,1752,2154,2129,71
1971,1757,2228,2104,71
1990,1723,2235,2057,69
2009,1715,2227,2007,63
2028,1675,2174,1951,63
2047,1663,2095,1878,61
2066,1657,2002,1789,57
2085,1648,1938,1722,58
2104,1659,1897,1696,55
2123,1685,1887,1677,55
2142,1656,1865,1669,59
2161,1635,1805,1702,56
2180,1594,1724,1733,55
2199,1567,1553,1747,57
2218,1559,1341,1741,59
2237,1573,1183,1718,60
2256,1589,1125,1711,57
2275,1610,1177,1726,57
2294,1637,1303,1767,60
2313,1661,1443,1813,57
2332,1691,1559,1835,59
2351,1743,1669,1909,59
2370,1848,1803,1999,69
2389,2037,1957,2094,71
2408,2327,2085,2198,75
2427,2583,2147,2262,73
2446,2669,2143,2287,75
2465,2623,2095,2271,69
2484,2461,2031,2200,69
2503,2167,1975,2119,72
2522,2043,1959,2053,63
2541,1869,1951,1961,68
2560,1781,1961,1900,60
2579,1638,1942,1851,59
2598,1565,1927,1815,59
2617,1529,1903,1787,55
2636,1555,1891,1788,59
2655,1573,1851,1799,58
2674,1611,1846,1791,51
2693,1655,1816,1812,61
2712,1690,1806,1847,59
2731,1716,1801,1886,60
2750,1755,1780,1916,63
2769,1773,1753,1983,63
2788,1779,1733,1981,63
2807,1749,1663,1981,64
2826,1688,1588,1955,63
2845,1655,1491,1909,61
2864,1625,1416,1845,57
2903,1663,1357,1783,71
2922,1753,1429,1845,61
2941,1773,1407,1822,69
2960,1765,1397,1820,59
2979,1725,1415,1813,59
2998,1673,1422,1827,61
3017,1645,1437,1823,57
3036,1669,1454,1840,59
3055,1687,1486,1861,63
3074,1701,1499,1849,63
3093,1699,1553,1869,61
3112,1723,1637,1927,63
3131,1837,1781,1975,64
3150,2093,1981,2063,69
3169,2419,2143,2185,75
3188,2653,2251,2275,77
3207,2733,2254,2327,77
3226,2643,2193,2339,71
3245,2461,2068,2293,75
3264,2247,1917,2233,70
3283,2053,1811,2148,64
3302,1909,1725,2072,69
3321,1813,1674,2009,63
3340,1741,1651,1960,61
3359,1685,1622,1903,67
3378,1656,1610,1879,61
3397,1644,1587,1851,61
3416,1654,1629,1850,59
3435,1715,1688,1877,61
3454,1817,1759,1909,63
3473,1908,1830,1961,62
3492,1968,1865,1996,63
3511,1975,1869,2012,61
3530,1952,1843,2024,67
3549,1909,1789,2017,68
3568,1849,1747,1993,67
3587,1805,1709,1981,63
3606,1753,1686,1957,63
3625,1725,1673,1930,63
3644,1689,1656,1885,67
3663,1657,1641,1877,58
3682,1655,1659,1849,55
3701,1656,1686,1836,58
3720,1685,1722,1838,61
3739,1711,1769,1849,61
3758,1747,1783,1845,69
3777,1741,1801,1846,59
3796,1737,1785,1839,61
3815,1735,1785,1823,59
3834,1763,1799,1836,57
3873,1804,1899,1875,73
3892,1975,2117,1991,67
3911,2229,2279,2079,70
3930,2539,2442,2227,75
3949,2795,2603,2357,75
3968,2923,2669,2459,83
3987,2889,2653,2509,79
4006,2728,2555,2483,76
4025,2487,2399,2423,78
4044,2235,2211,2331,72
4063,2022,2031,2222,73
4082,1855,1904,2157,63
4101,1759,1805,2083,71
4120,1720,1771,2035,61
4139,1692,1756,1981,68
4158,1709,1719,1965,70
4177,1719,1735,1917,60
4196,1727,1769,1913,61
4215,1799,1821,1901,60
4234,1865,1899,1913,60
4253,1961,1939,1943,61
4272,2015,1965,1983,63
4291,2015,1959,1989,73
4310,1979,1939,2003,69
4329,1926,1919,2011,62
4348,1869,1897,1991,62
4367,1821,1863,1939,67
4386,1783,1877,1910,67
4405,1767,1832,1890,61
4424,1727,1789,1854,63
4443,1690,1751,1817,61
4462,1644,1701,1772,57
4481,1619,1689,1743,58
4500,1636,1719,1749,57
4519,1678,1811,1755,56
4538,1755,1932,1787,59
4557,1813,2060,1816,60
4576,1831,2173,1828,61
4595,1817,2237,1837,61
4614,1806,2291,1832,61
4633,1775,2303,1849,60
4652,1770,2315,1861,63
4671,1785,2315,1884,61
4690,1879,2357,1964,67
4709,2159,2469,2109,71
4728,2557,2631,2317,75
4747,2938,2813,2515,83
4766,3211,2927,2675,83
4785,3294,2917,2746,87
4804,3155,2811,2734,87
4843,2487,2391,2520,91
4862,2165,2233,2440,79
4881,1838,2057,2309,75
4900,1608,1900,2201,68
4919,1498,1803,2109,72
4938,1489,1716,2039,62
4957,1527,1651,1983,61
4976,1619,1629,1947,60
4995,1721,1619,1920,61
5014,1823,1643,1911,60
5033,1928,1688,1928,59
5052,2013,1752,1933,67
5071,2071,1827,1934,63
5090,2063,1875,1940,61
5109,2031,1900,1944,60
5128,1954,1883,1915,59
5147,1869,1835,1874,57
5166,1811,1773,1837,59
5185,1765,1699,1801,58
5204,1756,1643,1773,59
5223,1735,1599,1762,57
5242,1727,1592,1742,57
5261,1715,1584,1735,53
5280,1705,1572,1721,57
5299,1715,1579,1727,55
5318,1727,1609,1721,57
5337,1765,1637,1715,59
5356,1780,1673,1736,57
5375,1782,1724,1747,61
5394,1779,1747,1747,59
5413,1769,1771,1772,59
5432,1778,1787,1775,59
5451,1787,1813,1799,56
5470,1811,1831,1813,59
5489,1833,1861,1849,61
5508,1847,1926,1869,72
5527,1962,2055,1939,67
5546,2251,2216,2067,63
5565,2615,2413,2219,73
5584,2937,2549,2374,78
5603,3132,2617,2489,83
5622,3126,2579,2539,83
5641,2937,2441,2485,87
5660,2652,2237,2388,73
5679,2331,2055,2223,71
5698,2039,1891,2074,64
5717,1833,1757,1947,56
5736,1695,1695,1833,59
5755,1631,1687,1763,59
5774,1605,1693,1719,57
5813,1621,1775,1708,73
5832,1754,1875,1800,59
5851,1830,1913,1839,60
5870,1928,1947,1877,67
5889,2011,1966,1945,63
5908,2063,1964,1972,70
5927,2053,1943,2017,61
5946,1999,1904,2003,63
5965,1944,1884,1995,64
5984,1867,1863,1983,62
6003,1804,1833,1941,61
6022,1759,1833,1919,61
6041,1715,1827,1886,63
6060,1689,1829,1849,59
6079,1673,1835,1803,57
6098,1678,1845,1779,59
6117,1688,1865,1771,54
6136,1710,1893,1782,59
6155,1758,1899,1789,57
6174,1781,1927,1813,59
6193,1781,1935,1827,59
6212,1770,1917,1827,58
6231,1757,1914,1836,61
6250,1749,1903,1853,59
6269,1767,1901,1863,62
6288,1787,1917,1853,59
6307,1821,1943,1849,61
6326,1875,2013,1883,60
6345,2031,2139,1949,67
6364,2333,2285,2077,69
6383,2677,2425,2255,71
6402,2951,2527,2383,79
6421,3055,2539,2504,79
6440,2995,2461,2533,78
6459,2773,2315,2463,75
6478,2471,2120,2347,73
6497,2165,1955,2203,73
6516,1903,1829,2084,60
6535,1735,1755,1991,57
6554,1624,1739,1875,59
6573,1577,1733,1835,58
6592,1577,1763,1775,62
6611,1599,1798,1771,55
6630,1653,1848,1775,61
6649,1751,1899,1779,59
6668,1885,1983,1813,57
6687,2011,2055,1901,61
6706,2105,2095,1949,62
6725,2135,2121,1997,72
6744,2101,2083,2027,67
6783,1909,1975,1988,74
6802,1895,1962,2005,67
6821,1811,1913,1960,61
6840,1735,1874,1885,59
6859,1673,1823,1829,55
6878,1642,1789,1788,56
6897,1637,1785,1763,55
6916,1645,1799,1779,57
6935,1675,1810,1785,56
6954,1711,1837,1801,59
6973,1754,1853,1817,59
6992,1781,1901,1827,59
7011,1779,1910,1835,59
7030,1787,1913,1839,60
7049,1799,1917,1847,59
7068,1813,1913,1839,59
7087,1833,1909,1861,61
7106,1843,1913,1871,61
7125,1843,1933,1889,62
7144,1895,1989,1908,63
7163,2090,2093,1999,67
7182,2402,2247,2137,72
7201,2734,2406,2315,77
7220,3015,2515,2479,84
7239,3119,2541,2581,84
7258,3035,2485,2600,86
7277,2812,2343,2533,79
7296,2525,2169,2425,75
7315,2221,2019,2283,73
7334,1990,1900,2147,68
7353,1822,1831,2039,67
7372,1716,1787,1959,63
7391,1675,1772,1887,59
7410,1659,1783,1869,60
7429,1661,1781,1835,57
7448,1702,1831,1852,59
7467,1775,1885,1879,57
7486,1881,1943,1903,69
7505,2003,2020,1959,69
7524,2055,2067,2009,69
7543,2091,2066,2035,71
7562,2067,2053,2038,67
7581,2015,2003,2013,68
7600,1915,1955,1981,61
7619,1848,1927,1951,61
7638,1781,1902,1915,61
7657,1740,1897,1883,61
7676,1705,1893,1847,59
7695,1670,1885,1809,57
7714,1655,1884,1783,59
7753,1699,1901,1785,72
7773,1775,1975,1852,60
7792,1810,1951,1831,61
7811,1819,1931,1820,56
7830,1782,1909,1824,59
7849,1781,1907,1829,58
7868,1787,1901,1815,60
7887,1811,1924,1833,60
7906,1816,1943,1842,59
7925,1839,1943,1869,63
7944,1823,1957,1866,59
7963,1815,1943,1855,61
7982,1807,1938,1837,60
8001,1811,1947,1847,59
8020,1867,2003,1875,60
8039,2065,2123,1944,63
8058,2383,2285,2088,71
8077,2705,2457,2263,73
8096,2952,2557,2430,78
8115,3049,2583,2548,83
8134,2984,2503,2601,83
8153,2791,2358,2553,85
8172,2542,2190,2473,79
8191,2261,2055,2344,75
8210,2045,1928,2219,72
8229,1862,1821,2085,62
8248,1743,1771,1981,61
8267,1673,1767,1927,59
8286,1660,1776,1875,62
8305,1690,1812,1865,59
8324,1748,1867,1870,61
8343,1811,1916,1879,61
8362,1881,1973,1903,59
8381,1967,2019,1949,60
8400,2023,2037,1994,63
8419,2067,2031,2031,68
8438,2075,2063,2053,71
8457,2040,2041,2037,69
8476,1966,2009,2021,63
8495,1898,1963,1979,61
8514,1807,1917,1916,63
8533,1764,1878,1871,59
8552,1719,1863,1848,61
8571,1707,1862,1829,60
8590,1708,1867,1805,58
8609,1720,1873,1797,55
8628,1708,1875,1787,57
8647,1725,1880,1789,59
8666,1741,1895,1812,59
8685,1766,1899,1811,59
8725,1837,1961,1843,75
8745,1897,2006,1891,61
8764,1867,1972,1862,59
8783,1824,1943,1845,59
8802,1807,1919,1821,58
8821,1818,1919,1823,58
8840,1820,1925,1818,57
8859,1823,1941,1831,53
8878,1821,1932,1829,60
8897,1817,1931,1813,57
8916,1811,1939,1813,60
8935,1815,1934,1827,56
8954,1839,1971,1843,59
8973,1948,2063,1910,61
8992,2205,2220,2013,69
9011,2536,2391,2165,72
9030,2813,2527,2352,77
9049,2964,2589,2503,78
9068,2971,2541,2599,83
9087,2852,2423,2605,85
9106,2633,2267,2540,83
9125,2367,2116,2421,79
9144,2123,1959,2291,73
9163,1925,1852,2149,69
9182,1789,1787,2043,63
9201,1711,1769,1961,61
9220,1689,1782,1898,68
9239,1703,1812,1865,57
9258,1735,1845,1869,61
9277,1781,1891,1865,60
9296,1829,1926,1891,60
9315,1895,1967,1919,63
9334,1977,2003,1972,61
9353,2029,2019,2011,71
9372,2067,2029,2041,69
9391,2063,2031,2057,69
9410,2007,1997,2034,63
9429,1943,1961,1996,62
9448,1865,1907,1956,63
9467,1779,1878,1908,59
9486,1754,1855,1879,59
9505,1741,1861,1847,60
9524,1737,1878,1831,58
9543,1739,1885,1818,59
9562,1735,1885,1802,57
9581,1747,1893,1791,57
9600,1755,1893,1805,55
9619,1780,1901,1815,57
9638,1807,1943,1819,59
9657,1824,1959,1833,59
9696,1829,1973,1849,73
9715,1885,2008,1897,61
9734,1869,1983,1879,58
9753,1847,1959,1855,59
9772,1847,1941,1834,59
9791,1843,1949,1836,61
9810,1838,1919,1837,61
9829,1813,1926,1839,58
9848,1789,1899,1829,57
9867,1801,1901,1833,53
9886,1820,1897,1834,60
9905,1844,1903,1839,59
9924,1876,1932,1853,61
9943,1877,1965,1873,61
9962,1939,2013,1911,61
9981,2155,2133,2004,62
10000,2455,2303,2139,71
10019,2731,2443,2319,74
10038,2909,2551,2475,83
10057,2943,2509,2587,83
10076,2827,2429,2615,85
10095,2589,2280,2539,82
10114,2323,2111,2415,75
10133,2093,1962,2284,72
10152,1910,1879,2141,69
10171,1813,1818,2027,69
10190,1748,1819,1929,59
10209,1709,1823,1877,68
10228,1705,1843,1831,60
10247,1723,1867,1835,59
10266,1773,1895,1843,61
10285,1849,1933,1862,63
10304,1963,2003,1919,61
10323,2053,2069,1979,61
10342,2111,2092,2014,71
10361,2112,2088,2058,69
10380,2059,2031,2059,69
10399,2002,1979,2063,63
10418,1919,1931,2035,63
10437,1867,1893,1995,69
10456,1819,1865,1951,61
10475,1779,1861,1915,61
10494,1740,1849,1865,60
10513,1716,1847,1834,59
10532,1695,1839,1815,59
10551,1735,1866,1813,57
10570,1767,1891,1815,59
10589,1785,1906,1821,59
10608,1817,1933,1837,60
10627,1827,1944,1851,59
10666,1811,1937,1851,73
10685,1885,1991,1901,62
10704,1891,1980,1891,62
10723,1882,1963,1869,60
10742,1865,1945,1867,62
10761,1847,1915,1847,61
10780,1822,1914,1836,61
10799,1819,1891,1824,57
10818,1816,1883,1823,57
10837,1837,1899,1827,61
10856,1875,1916,1843,59
10875,1885,1933,1849,59
10894,1891,1935,1851,60
10913,1903,1974,1877,59
10932,2011,2077,1909,62
10951,2259,2217,2024,68
10970,2541,2381,2195,73
10989,2782,2491,2361,77
11008,2892,2515,2477,81
11027,2837,2459,2531,77
11046,2653,2331,2508,77
11065,2407,2164,2422,75
11084,2165,2021,2314,72
11103,1949,1899,2175,71
11122,1807,1821,2075,63
11141,1727,1779,1971,61
11160,1686,1779,1889,61
11179,1669,1779,1851,56
11198,1683,1807,1835,57
11217,1741,1855,1845,54
11236,1824,1932,1876,58
11255,1918,2001,1925,69
11274,2028,2037,1975,69
11293,2090,2065,2015,73
11312,2099,2083,2043,63
11331,2083,2067,2077,69
11350,2037,2024,2065,63
11369,1976,1977,2021,61
11388,1919,1949,2005,62
11407,1861,1933,1961,61
11426,1789,1913,1900,62
11445,1749,1897,1867,59
11464,1708,1892,1815,59
11483,1705,1886,1783,57
11502,1717,1903,1781,58
11521,1757,1945,1799,61
11540,1821,1983,1811,57
11559,1853,1997,1821,59
11578,1853,1989,1837,57
11597,1845,1992,1837,59
11637,1836,1973,1855,73
11657,1915,2024,1941,63
11676,1903,1991,1920,70
11695,1849,1939,1909,62
11714,1819,1907,1883,59
11733,1807,1876,1863,60
11752,1805,1879,1845,59
11771,1828,1902,1839,59
11790,1846,1930,1831,56
11809,1870,1950,1820,61
11828,1871,1939,1823,60
11847,1869,1925,1803,58
11866,1853,1928,1815,57
11885,1889,1971,1853,59
11904,2079,2087,1950,67
11923,2387,2260,2091,71
11942,2679,2429,2286,77
11961,2863,2542,2462,82
11980,2889,2555,2573,85
11999,2791,2491,2619,83
12018,2601,2363,2582,84
12037,2365,2218,2479,83
12056,2149,2079,2355,77
12075,1977,1977,2237,71
12094,1855,1899,2126,69
12113,1788,1847,2027,68
12132,1765,1844,1966,60
12151,1747,1844,1927,61
12170,1773,1877,1917,61
12189,1823,1939,1901,61
12208,1893,1989,1941,61
12227,1973,2037,1951,62
12246,2015,2085,2006,67
12265,2067,2101,2043,69
12284,2072,2111,2109,69
12303,2063,2099,2095,69
12322,2019,2063,2083,69
12341,1963,2027,2073,69
12360,1912,1997,2027,63
12379,1844,1951,1964,61
12398,1785,1901,1909,61
12417,1741,1885,1880,62
12436,1725,1881,1854,59
12455,1749,1869,1852,57
12474,1767,1887,1849,60
12493,1787,1910,1835,53
12512,1785,1908,1835,59
12531,1787,1913,1853,59
12550,1812,1919,1865,61
12569,1811,1931,1865,58
12609,1853,1961,1899,73
12629,1901,2001,1943,63
12648,1851,1961,1925,62
12667,1813,1937,1900,61
12686,1801,1917,1885,58
12705,1821,1900,1861,63
12724,1835,1917,1848,61
12743,1853,1934,1861,53
12762,1847,1932,1838,59
12781,1829,1912,1839,57
12800,1821,1907,1866,59
12819,1821,1911,1840,59
12838,1839,1939,1847,61
12857,1883,1993,1884,61
12876,2063,2116,1944,69
12895,2359,2285,2073,72
12914,2663,2461,2249,75
12933,2876,2607,2422,81
12952,2950,2667,2579,85
12971,2901,2638,2639,85
12990,2717,2533,2629,87
13009,2485,2383,2540,84
13028,2251,2213,2412,77
13047,2027,2059,2261,70
13066,1885,1949,2125,68
13085,1804,1876,2023,61
13104,1780,1845,1961,63
13123,1791,1849,1930,60
13142,1810,1855,1909,60
13161,1835,1895,1901,63
13180,1876,1941,1915,62
13199,1927,1991,1959,61
13218,2011,2057,2002,62
13237,2089,2079,2043,74
13256,2125,2108,2083,71
13275,2111,2103,2095,69
13294,2067,2071,2091,70
13313,1976,2025,2063,63
13332,1901,1966,2021,67
13351,1845,1899,1983,61
13370,1801,1883,1935,59
13389,1771,1854,1907,59
13408,1769,1849,1867,62
13427,1799,1850,1855,61
13446,1751,1839,1833,59
13465,1751,1837,1823,57
13484,1755,1847,1813,55
13503,1771,1848,1821,59
13522,1805,1875,1839,59
13541,1831,1899,1842,61
13581,1847,1907,1864,73
13601,1900,1974,1941,60
13620,1894,1948,1903,61
13639,1864,1930,1886,59
13658,1843,1925,1869,60
13677,1839,1903,1852,61
13696,1818,1896,1854,59
13715,1821,1893,1853,59
13734,1813,1889,1846,55
13753,1823,1903,1835,59
13772,1836,1907,1831,61
13791,1838,1914,1848,60
13810,1853,1919,1853,72
13829,1844,1929,1849,57
13848,1897,1991,1885,62
13867,2151,2147,1977,61
13886,2501,2356,2135,63
13905,2837,2580,2335,77
13924,3047,2739,2526,85
13943,3063,2779,2649,92
13962,2917,2709,2679,83
13981,2669,2525,2603,83
14000,2405,2323,2476,78
14019,2155,2141,2335,71
14038,1989,1997,2173,71
14057,1851,1912,2070,69
14076,1797,1839,1979,62
14095,1755,1803,1931,60
14114,1736,1781,1891,60
14133,1749,1803,1884,59
14152,1798,1847,1897,60
14171,1903,1927,1947,63
14190,2024,2009,2003,63
14209,2120,2084,2054,69
14228,2159,2139,2085,63
14247,2147,2131,2105,62
14266,2091,2089,2091,69
14285,2019,2027,2092,61
14304,1951,1981,2053,71
14323,1893,1931,1988,61
14342,1845,1891,1935,56
14361,1791,1851,1902,63
14380,1759,1807,1861,57
14399,1743,1787,1850,58
14418,1747,1787,1823,58
14437,1752,1803,1820,59
14456,1785,1827,1827,57
14475,1813,1863,1835,61
14494,1853,1896,1861,61
14513,1836,1901,1847,57
14553,1832,1895,1869,73
14573,1915,1963,1931,63
14592,1897,1943,1911,61
14611,1871,1928,1879,61
14630,1835,1897,1863,55
14649,1816,1875,1851,60
14668,1799,1853,1835,59
14687,1807,1863,1843,60
14706,1833,1880,1843,59
14725,1853,1901,1841,60
14744,1852,1901,1847,59
14763,1828,1884,1843,59
14782,1813,1879,1838,61
14801,1805,1883,1835,55
14820,1831,1891,1833,61
14839,1849,1886,1822,61
14858,1885,1919,1843,61
14877,2023,2029,1917,61
14896,2349,2253,2073,70
14915,2681,2501,2265,75
14934,2983,2765,2492,81
14953,3136,2916,2662,85
14972,3118,2971,2759,88
14991,2956,2876,2750,89
15010,2696,2680,2659,81
15029,2408,2449,2487,77
15048,2151,2205,2325,73
15067,1973,2019,2165,71
15086,1863,1881,2042,63
15105,1817,1815,1972,61
15124,1807,1787,1913,60
15143,1817,1799,1896,71
15162,1835,1817,1891,59
15181,1877,1879,1913,59
15200,1963,1956,1955,67
15219,2038,2032,2007,69
15238,2132,2117,2073,69
15257,2166,2159,2115,73
15276,2173,2163,2137,74
15295,2117,2121,2136,71
15314,2025,2057,2093,63
15333,1928,1966,2040,63
15352,1849,1880,1980,56
15371,1798,1831,1944,61
15390,1779,1812,1897,60
15409,1768,1798,1861,61
15428,1766,1768,1821,59
15447,1740,1763,1811,57
15466,1719,1783,1813,59
15485,1715,1785,1821,57
15525,1801,1877,1829,74
15545,1895,1938,1903,63
15564,1853,1895,1890,60
15583,1818,1875,1864,62
15602,1806,1868,1867,61
15621,1813,1880,1843,61
15640,1833,1908,1847,61
15659,1845,1907,1849,61
15678,1836,1897,1861,61
15697,1831,1881,1847,59
15716,1823,1864,1847,61
15735,1827,1821,1843,55
15754,1820,1855,1839,64
15773,1839,1875,1844,61
15792,1837,1883,1849,57
15811,1843,1887,1835,62
15830,1818,1878,1839,59
15849,1816,1877,1847,57
15868,1823,1883,1827,59
15887,1832,1891,1833,58
15906,1863,1939,1851,59
15925,1999,2079,1927,61
15944,2313,2317,2063,69
15963,2697,2606,2268,73
15982,3029,2886,2491,83
16001,3190,3087,2675,82
16020,3183,3113,2787,90
16039,3014,2999,2776,87
16058,2759,2776,2683,85
16077,2473,2515,2525,83
16096,2215,2227,2359,73
16115,2003,2007,2188,69
16134,1871,1865,2073,70
16153,1815,1775,1983,61
16172,1799,1725,1948,60
16191,1811,1719,1940,61
16210,1837,1740,1931,51
16229,1875,1783,1959,61
16248,1933,1836,1989,63
16267,2008,1898,2058,68
16286,2078,1943,2120,68
16305,2133,1961,2166,72
16324,2151,1947,2159,71
16343,2121,1917,2141,69
16362,2055,1869,2077,69
16381,1965,1835,1998,63
16400,1871,1775,1931,61
16419,1817,1725,1876,59
16438,1772,1700,1835,59
16457,1753,1695,1799,57
16497,1708,1701,1765,69
16517,1765,1743,1811,59
16536,1764,1737,1801,60
16555,1766,1746,1789,57
16574,1771,1756,1801,58
16593,1799,1769,1805,59
16612,1807,1779,1809,59
16631,1813,1805,1829,59
16650,1813,1820,1833,59
16669,1814,1827,1847,61
16688,1823,1838,1855,61
16707,1831,1853,1855,57
16726,1844,1861,1865,68
16745,1844,1849,1839,61
16764,1845,1839,1830,60
16783,1823,1836,1811,59
16802,1810,1819,1819,59
16821,1820,1819,1817,59
16840,1844,1819,1816,57
16859,1866,1851,1813,59
16878,1865,1837,1823,60
16897,1853,1843,1813,54
16916,1833,1838,1813,58
16935,1824,1843,1813,59
16954,1846,1866,1828,61
16973,1897,1957,1892,61
16992,2109,2142,1995,63
17011,2482,2424,2170,72
17030,2825,2725,2367,77
17049,3027,2952,2572,83
17068,3077,3031,2675,83
17087,2955,2972,2695,85
17106,2748,2773,2627,84
17125,2471,2511,2495,79
17144,2193,2235,2329,75
17163,1947,1983,2159,63
17182,1769,1791,2005,67
17201,1673,1689,1907,57
17220,1645,1637,1842,59
17239,1682,1621,1797,57
17258,1736,1679,1804,57
17277,1815,1757,1829,69
17296,1917,1868,1880,58
17315,2010,1990,1947,61
17334,2109,2090,2025,71
17353,2163,2173,2091,70
17372,2183,2185,2127,71
17391,2155,2164,2131,69
17410,2089,2103,2095,71
17429,1993,1998,2059,68
17469,1791,1788,1919,72
17489,1811,1801,1917,62
17508,1763,1757,1855,61
17527,1719,1719,1791,69
17546,1703,1706,1775,55
17565,1689,1693,1753,57
17584,1706,1707,1757,58
17603,1723,1735,1761,55
17622,1767,1779,1780,62
17641,1791,1827,1807,60
17660,1823,1864,1839,67
17679,1831,1887,1855,61
17698,1823,1897,1885,58
17717,1812,1883,1879,62
17736,1815,1889,1887,58
17755,1821,1887,1884,61
17774,1843,1902,1877,61
17793,1847,1907,1867,67
17812,1835,1886,1835,61
17831,1813,1875,1847,59
17850,1807,1874,1831,57
17869,1805,1870,1833,57
17888,1822,1870,1817,61
17907,1855,1879,1816,58
17926,1867,1911,1831,61
17945,1913,1993,1896,59
17964,2136,2207,1991,61
17983,2501,2503,2189,73
18002,2871,2826,2414,77
18021,3117,3093,2599,88
18040,3172,3189,2733,88
18059,3023,3095,2735,87
18078,2778,2855,2653,85
18097,2463,2567,2475,78
18116,2171,2259,2318,72
18135,1949,2012,2137,63
18154,1811,1837,2007,64
18173,1727,1741,1902,61
18192,1707,1691,1835,59
18211,1709,1691,1810,58
18230,1721,1709,1811,57
18249,1772,1770,1820,57
18268,1843,1871,1863,59
18287,1955,1975,1945,61
18306,2084,2095,2025,62
18325,2163,2175,2085,71
18344,2186,2186,2125,69
18363,2141,2156,2135,68
18382,2063,2073,2088,69
18401,1959,1965,2029,63
18441,1821,1810,1919,75
18461,1828,1799,1913,68
18480,1757,1727,1847,59
18499,1707,1691,1787,57
18518,1683,1677,1765,56
18537,1693,1694,1740,57
18556,1711,1724,1751,59
18575,1745,1771,1762,58
18594,1757,1805,1781,57
18613,1759,1823,1791,56
18632,1765,1831,1813,59
18651,1779,1837,1817,58
18670,1803,1867,1847,61
18689,1832,1897,1849,59
18708,1867,1916,1871,61
18727,1875,1925,1877,67
18746,1845,1897,1879,60
18765,1823,1882,1873,59
18784,1823,1855,1861,59
18803,1821,1860,1850,57
18822,1840,1869,1836,59
18841,1839,1885,1837,59
18860,1869,1893,1815,71
18879,1851,1897,1817,59
18898,1855,1913,1851,59
18917,1946,2063,1927,63
18936,2267,2340,2088,69
18955,2696,2729,2312,76
18974,3080,3083,2551,86
18993,3277,3317,2732,89
19012,3231,3339,2804,89
19031,3033,3135,2783,88
19050,2718,2828,2635,85
19069,2411,2479,2460,74
19088,2151,2183,2287,75
19107,1941,1951,2119,67
19126,1823,1797,2009,67
19145,1739,1719,1918,67
19164,1710,1677,1867,59
19183,1716,1677,1831,59
19202,1752,1715,1839,59
19221,1835,1801,1871,63
19240,1931,1909,1940,61
19259,2037,2037,1997,67
19278,2119,2141,2065,70
19297,2143,2188,2101,68
19316,2135,2168,2119,69
19335,2079,2107,2123,63
19354,2007,2035,2093,69
19373,1943,1957,2053,64
19413,1828,1787,1925,75
19433,1827,1761,1903,61
19452,1767,1709,1833,59
19471,1747,1685,1775,61
19490,1727,1683,1742,57
19509,1735,1703,1735,59
19528,1717,1721,1757,60
19547,1738,1740,1757,57
19566,1737,1769,1779,59
19585,1755,1789,1810,59
19604,1766,1832,1833,61
19623,1792,1861,1876,61
19642,1815,1877,1869,59
19661,1839,1895,1875,59
19680,1819,1890,1861,59
19699,1785,1880,1849,57
19718,1785,1861,1847,57
19737,1803,1847,1849,59
19756,1823,1853,1839,60
19775,1830,1851,1845,61
19794,1849,1845,1822,60
19813,1831,1831,1809,59
19832,1823,1818,1803,59
19851,1833,1853,1823,59
19870,1926,1995,1878,63
19889,2231,2295,2053,70
19908,2679,2729,2285,77
19927,3093,3176,2556,79
19946,3309,3469,2770,90
19965,3323,3519,2858,90
19984,3133,3295,2853,87
20003,2829,2962,2728,85
20022,2507,2579,2521,77
20041,2213,2228,2331,72
20060,1991,1960,2151,75
20079,1834,1763,2008,63
20098,1739,1637,1920,59
20117,1703,1583,1865,61
20136,1699,1581,1819,59
20155,1763,1643,1838,60
20174,1848,1759,1887,61
20193,1960,1886,1939,71
20212,2061,2031,2013,67
20231,2135,2141,2073,69
20250,2165,2181,2121,70
20269,2166,2181,2137,70
20288,2133,2129,2099,69
20307,2077,2063,2095,73
20326,1983,1957,2025,69
20345,1908,1850,1949,61
20385,1735,1687,1830,63
20405,1781,1702,1849,60
20424,1768,1670,1817,61
20443,1743,1647,1772,61
20462,1725,1653,1765,60
20481,1717,1670,1763,59
20500,1723,1693,1773,58
20519,1733,1737,1787,57
20538,1759,1780,1807,61
20557,1790,1823,1829,61
20576,1821,1855,1851,61
20595,1819,1878,1861,63
20614,1819,1865,1861,59
20633,1804,1853,1867,60
20652,1783,1852,1865,59
20671,1799,1847,1843,60
20690,1819,1843,1847,61
20709,1829,1847,1839,59
20728,1827,1840,1833,59
20747,1818,1821,1818,61
20766,1813,1806,1807,57
20785,1813,1845,1810,57
20804,1897,1997,1871,59
20823,2188,2301,2063,69
20842,2635,2739,2299,77
20861,3049,3182,2577,86
20880,3311,3485,2823,89
20899,3349,3549,2919,92
20918,3166,3359,2893,91
20937,2871,2995,2741,85
20956,2549,2603,2549,78
20975,2245,2220,2329,75
20994,1999,1929,2131,63
21013,1819,1719,1977,60
21032,1703,1590,1875,57
21051,1659,1530,1821,59
21070,1677,1548,1791,56
21089,1737,1612,1815,59
21108,1833,1720,1851,62
21127,1948,1891,1925,61
21146,2053,2005,1998,69
21165,2131,2100,2067,68
21184,2175,2171,2121,71
21203,2167,2187,2151,70
21222,2151,2149,2124,72
21241,2074,2065,2079,69
21260,1983,1968,2027,74
21279,1893,1853,1948,61
21298,1800,1747,1875,59
21317,1737,1673,1819,57
21360,1719,1655,1763,72
21380,1779,1704,1802,60
21399,1739,1705,1779,57
21418,1724,1699,1769,56
21437,1719,1705,1773,55
21456,1726,1727,1781,59
21475,1755,1761,1803,60
21494,1775,1773,1813,60
21513,1797,1790,1823,58
21532,1805,1810,1831,59
21551,1791,1807,1839,59
21570,1813,1813,1833,61
21589,1829,1823,1844,61
21608,1839,1833,1833,61
21627,1845,1830,1833,59
21646,1824,1831,1839,59
21665,1784,1811,1833,56
21684,1784,1797,1839,60
21703,1813,1765,1866,59
21722,1846,1763,1878,62
21741,1873,1740,1919,63
21760,1961,1836,2029,78
21779,2249,2089,2191,72
21798,2707,2501,2391,77
21817,3164,2955,2601,85
21836,3481,3316,2731,88
21855,3591,3455,2774,89
21874,3405,3302,2712,85
21893,3080,2931,2542,81
21912,2693,2456,2310,73
21931,2333,1934,2073,61
21950,2054,1451,1898,59
21969,1873,1122,1799,55
21988,1785,952,1751,59
22007,1757,895,1723,59
22026,1747,955,1725,59
22045,1759,1079,1750,58
22064,1787,1247,1747,57
22083,1874,1493,1783,57
22102,1965,1717,1810,57
22121,2073,1928,1855,61
22140,2163,2066,1929,63
22159,2164,2126,1991,69
22178,2119,2111,2019,71
22197,2034,2045,2027,63
22216,1925,1971,2012,63
22235,1812,1897,1997,62
22254,1728,1863,1973,62
22273,1693,1845,1933,62
22292,1684,1834,1881,61
22371,1835,1887,1844,77
22391,1862,1899,1844,62
22410,1779,1817,1771,68
22429,1720,1765,1719,57
22448,1691,1724,1705,57
22467,1677,1735,1721,57
22486,1691,1751,1749,56
22505,1720,1788,1783,59
22524,1767,1831,1800,57
22543,1801,1847,1821,68
22562,1817,1868,1849,60
22581,1807,1843,1861,59
22600,1809,1837,1839,61
22619,1805,1822,1863,59
22638,1823,1829,1846,59
22657,1829,1827,1843,60
22676,1831,1806,1839,60
22695,1827,1820,1837,60
22714,1831,1831,1819,59
22733,1866,1945,1867,59
22752,2120,2249,1997,67
22771,2588,2713,2219,75
22790,3061,3206,2477,81
22809,3387,3615,2698,88
22828,3486,3759,2823,89
22847,3303,3525,2815,88
22866,2971,3114,2712,85
22885,2591,2671,2531,75
22904,2261,2282,2330,73
22923,2003,1957,2125,69
22942,1820,1734,1991,61
22961,1726,1599,1894,60
22980,1677,1517,1828,57
22999,1688,1517,1790,57
23018,1717,1553,1801,57
23037,1783,1651,1831,61
23056,1894,1799,1886,63
23075,2012,1950,1963,62
23094,2125,2083,2041,68
23113,2173,2167,2100,63
23132,2168,2199,2120,71
23151,2125,2152,2119,67
23170,2067,2073,2075,63
23189,1983,1961,2023,63
23208,1903,1863,1957,61
23227,1831,1763,1897,63
23246,1743,1680,1845,59
23265,1685,1611,1809,59
23284,1646,1591,1775,59
23303,1647,1583,1752,56
23382,1864,1863,1891,83
23402,1855,1877,1887,61
23421,1783,1816,1843,60
23440,1736,1771,1810,59
23459,1711,1763,1779,57
23478,1701,1758,1773,60
23497,1703,1759,1769,57
23516,1708,1783,1797,58
23535,1741,1786,1821,57
23554,1772,1799,1823,61
23573,1815,1823,1854,59
23592,1843,1831,1851,61
23611,1839,1819,1839,60
23630,1819,1813,1821,57
23649,1813,1797,1809,57
23668,1807,1803,1800,55
23687,1839,1892,1851,61
23706,1997,2127,1951,68
23725,2378,2505,2159,73
23744,2844,2964,2411,77
23763,3221,3379,2661,86
23782,3399,3591,2823,89
23801,3311,3483,2868,87
23820,3064,3175,2749,85
23839,2719,2773,2595,83
23858,2363,2376,2397,73
23877,2063,2019,2191,73
23896,1815,1753,2007,60
23915,1677,1563,1875,59
23934,1611,1467,1779,59
23953,1579,1439,1748,57
23972,1624,1479,1749,58
23991,1717,1594,1771,59
24010,1828,1721,1835,69
24029,1943,1897,1912,61
24048,2056,2043,2007,69
24067,2125,2149,2083,70
24086,2155,2201,2120,68
24105,2165,2188,2138,71
24124,2117,2104,2104,69
24143,2019,1991,2044,69
24162,1917,1867,1991,63
24181,1799,1745,1927,60
24200,1715,1647,1847,57
24219,1671,1583,1799,59
24238,1671,1561,1768,60
24257,1675,1589,1742,58
24276,1691,1612,1740,58
24295,1711,1657,1734,59
24314,1707,1682,1755,59
24393,1933,1967,1963,85
24413,1899,1959,1965,69
24432,1784,1871,1908,59
24451,1709,1774,1839,56
24470,1679,1735,1803,58
24489,1704,1715,1773,59
24508,1740,1707,1763,57
24527,1769,1709,1768,67
24546,1772,1715,1779,56
24565,1823,1705,1787,57
24584,1791,1715,1783,59
24603,1819,1725,1782,57
24622,1845,1765,1787,61
24641,1864,1815,1817,60
24660,1965,1999,1897,62
24679,2247,2335,2077,69
24698,2681,2809,2348,77
24717,3135,3301,2643,88
24736,3465,3637,2876,94
24755,3501,3720,2981,93
24774,3341,3467,2969,95
24793,2955,3051,2796,91
24812,2597,2606,2587,82
24831,2254,2173,2343,73
24850,1941,1852,2123,69
24869,1767,1644,1983,61
24888,1693,1525,1879,60
24907,1671,1495,1821,60
24926,1685,1515,1805,61
24945,1725,1579,1819,57
24964,1767,1682,1845,61
24983,1847,1820,1915,61
25002,1965,1957,2001,61
25021,2087,2092,2071,69
25040,2173,2170,2125,69
25059,2197,2189,2151,70
25078,2149,2147,2135,69
25097,2031,2035,2073,63
25116,1935,1893,2013,63
25135,1832,1773,1943,61
25154,1748,1676,1860,61
25173,1705,1607,1821,59
25192,1691,1577,1769,57
25211,1677,1574,1736,57
25230,1675,1567,1712,56
25249,1675,1583,1721,55
25268,1686,1614,1733,53
25287,1705,1645,1749,56
25306,1733,1693,1779,58
25325,1748,1723,1802,59
25404,1897,1901,1961,83
25424,1915,1891,1974,70
25443,1843,1818,1892,61
25462,1771,1742,1820,59
25481,1739,1707,1775,58
25500,1720,1693,1752,57
25519,1723,1707,1757,58
25538,1771,1720,1752,57
25557,1807,1753,1763,59
25576,1831,1775,1783,61
25595,1843,1803,1785,58
25614,1837,1821,1815,57
25633,1876,1949,1874,61
25652,2090,2248,2039,68
25671,2534,2700,2323,77
25690,3021,3236,2633,87
25709,3398,3661,2887,97
25728,3528,3815,3021,99
25747,3352,3601,3015,94
25766,3019,3177,2872,89
25785,2647,2724,2649,83
25804,2297,2286,2399,74
25823,2011,1943,2181,71
25842,1821,1693,1993,62
25861,1689,1532,1881,61
25880,1628,1459,1807,56
25899,1621,1437,1754,58
25918,1651,1493,1747,57
25937,1723,1600,1786,55
25956,1853,1757,1853,63
25975,1989,1933,1945,62
25994,2110,2077,2043,69
26013,2163,2153,2103,71
26032,2185,2163,2133,69
26051,2135,2125,2133,69
26070,2067,2039,2104,63
26089,1975,1940,2011,67
26108,1887,1830,1933,60
26127,1813,1739,1875,59
26146,1727,1661,1810,59
26165,1668,1595,1755,57
26184,1635,1573,1719,57
26203,1638,1583,1701,55
26222,1676,1614,1701,57
26241,1703,1651,1707,56
26260,1743,1705,1741,53
26279,1743,1734,1769,57
26298,1737,1754,1786,59
26317,1741,1780,1806,60
26336,1753,1799,1823,59
26415,1908,1927,1966,85
26435,1889,1877,1974,64
26454,1805,1797,1882,63
26473,1758,1753,1815,59
26492,1727,1736,1771,59
26511,1726,1751,1759,59
26530,1721,1740,1751,56
26549,1725,1753,1775,57
26568,1751,1771,1779,57
26587,1788,1823,1816,56
26606,1871,1964,1891,60
26625,2099,2279,2042,70
26644,2535,2727,2311,77
26663,2995,3156,2604,85
26682,3290,3543,2821,93
26701,3359,3607,2943,90
26720,3183,3391,2917,89
26739,2899,2999,2758,88
26758,2555,2571,2539,77
26777,2213,2163,2295,70
26796,1939,1810,2084,61
26815,1719,1572,1894,59
26834,1599,1430,1756,55
26853,1563,1378,1687,57
26872,1571,1401,1651,55
26891,1621,1485,1676,57
26910,1701,1624,1735,56
26929,1805,1801,1832,59
26948,1939,1991,1957,67
26967,2070,2131,2067,70
26986,2159,2217,2156,73
27005,2194,2239,2187,71
27024,2158,2183,2171,71
27043,2085,2056,2108,75
27062,1974,1907,2035,63
27081,1867,1811,1947,62
27100,1759,1653,1854,58
27119,1703,1587,1775,58
27138,1687,1563,1733,57
27157,1681,1561,1708,55
27176,1691,1583,1692,60
27195,1685,1627,1705,59
27214,1693,1652,1709,55
27233,1707,1677,1723,58
27252,1716,1726,1756,57
27271,1757,1768,1775,59
27290,1791,1821,1804,58
27309,1801,1829,1827,59
27328,1803,1838,1841,61
27347,1802,1823,1835,61
27426,1965,1949,1951,83
27446,1944,1919,1929,61
27465,1834,1817,1844,59
27484,1757,1755,1773,56
27503,1726,1723,1738,56
27522,1747,1727,1725,58
27541,1763,1746,1741,59
27560,1797,1800,1768,61
27579,1836,1919,1839,61
27598,2043,2223,2026,69
27617,2470,2678,2309,75
27636,2968,3198,2655,88
27655,3369,3639,2941,95
27674,3512,3802,3115,101
27693,3375,3601,3087,107
27712,3044,3160,2917,91
27731,2662,2707,2682,83
27750,2299,2269,2418,75
27769,2002,1919,2187,69
27788,1791,1684,1981,63
27807,1675,1548,1867,59
27826,1641,1505,1800,58
27845,1639,1511,1759,56
27864,1661,1574,1767,55
27883,1725,1685,1815,59
27902,1828,1829,1867,59
27921,1963,2007,1965,64
27940,2103,2139,2065,68
27959,2190,2222,2154,72
27978,2202,2212,2197,75
27997,2139,2103,2207,69
28016,2057,1965,2153,70
28035,1940,1783,2058,61
28054,1851,1599,1955,61
28073,1782,1436,1853,57
28092,1733,1295,1754,57
28111,1690,1191,1655,55
28130,1659,1146,1599,54
28149,1638,1145,1563,53
28168,1641,1191,1551,51
28187,1669,1255,1559,55
28206,1693,1338,1589,55
28225,1736,1415,1629,56
28244,1769,1483,1639,55
28263,1775,1507,1644,52
28282,1773,1513,1659,55
28301,1773,1493,1702,56
28320,1773,1453,1715,57
28339,1804,1443,1741,57
28358,1817,1435,1772,59
28437,1984,1541,1925,83
28457,2029,1542,1913,63
28476,1943,1490,1851,62
28495,1854,1449,1767,57
28514,1783,1455,1755,57
28533,1747,1491,1774,57
28552,1771,1575,1817,59
28571,1886,1837,1943,69
28590,2219,2248,2163,72
28609,2711,2749,2457,83
28628,3173,3243,2771,93
28647,3429,3557,3017,99
28666,3412,3545,3161,100
28685,3163,3242,3123,95
28704,2827,2867,2967,93
28723,2477,2471,2739,88
28742,2169,2115,2501,76
28761,1911,1847,2274,70
28780,1739,1677,2085,61
28799,1644,1599,1971,60
28818,1583,1577,1873,59
28837,1597,1623,1816,59
28856,1650,1716,1781,58
28875,1717,1840,1812,59
28894,1828,1967,1865,61
28913,1929,2099,1939,67
28932,2021,2190,2037,69
28951,2076,2227,2101,67
28970,2087,2227,2121,71
28989,2067,2175,2125,72
29008,2021,2084,2067,68
29027,1948,1968,1997,62
29046,1851,1875,1935,59
29065,1765,1769,1855,57
29084,1703,1707,1787,54
29103,1675,1657,1724,57
29122,1684,1655,1735,59
29141,1686,1652,1706,57
29160,1694,1646,1695,59
29179,1699,1647,1656,55
29198,1723,1595,1613,54
29217,1749,1519,1599,53
29236,1779,1464,1625,53
29255,1820,1465,1673,56
29274,1839,1495,1717,57
29293,1848,1541,1770,53
29312,1848,1579,1831,59
29331,1824,1595,1851,59
29350,1812,1634,1907,61
29369,1801,1659,1895,61
29448,1931,1915,1997,84
29468,1901,1933,1991,63
29487,1803,1909,1927,63
29506,1750,1909,1887,59
29525,1719,1950,1838,59
29544,1721,2011,1836,60
29563,1791,2183,1904,61
29582,2007,2486,2089,73
29601,2429,2871,2380,75
29620,2858,3260,2711,89
29639,3127,3499,2968,99
29658,3160,3486,3089,99
29677,2979,3227,3031,93
29696,2671,2845,2822,85
29715,2327,2441,2565,83
29734,2031,2092,2281,71
29753,1801,1811,2059,64
29772,1655,1619,1874,59
29791,1583,1511,1735,56
29810,1563,1476,1647,54
29829,1549,1479,1625,54
29848,1565,1551,1639,55
29867,1615,1673,1703,55
29886,1739,1848,1839,60
29905,1897,2041,1991,68
29924,2067,2195,2125,70
29943,2165,2277,2219,61
29962,2186,2261,2229,75
29981,2126,2163,2199,69
30000,2042,2041,2095,64
30019,1947,1911,1999,63
30038,1868,1811,1894,59
30057,1811,1735,1818,57
30076,1757,1695,1746,61
30095,1723,1672,1703,57
30114,1709,1676,1663,55
30133,1705,1687,1659,55
30152,1711,1711,1687,56
30171,1735,1764,1715,56
30190,1753,1803,1741,60
30209,1779,1823,1781,63
30228,1779,1846,1803,59
30247,1773,1855,1819,60
30266,1775,1880,1834,59
30285,1785,1898,1849,60
30304,1815,1916,1870,61
30323,1831,1932,1881,59
30342,1853,1932,1853,59
30361,1855,1917,1839,60
30380,1847,1881,1828,59
30458,2021,2129,2034,88
30478,2219,2440,2281,77
30497,2489,2764,2525,87
30516,2836,3108,2828,93
30535,3056,3367,3054,99
30554,3140,3398,3159,105
30573,3013,3212,3089,99
30592,2772,2879,2867,91
30611,2461,2520,2604,81
30630,2157,2164,2330,72
30649,1910,1897,2093,63
30668,1767,1689,1911,57
30687,1681,1581,1784,58
30706,1655,1553,1717,59
30725,1655,1575,1703,59
30744,1690,1623,1725,57
30763,1717,1721,1787,59
30782,1769,1843,1891,61
30801,1864,1987,2002,60
30820,1983,2109,2095,75
30839,2087,2187,2197,70
30858,2133,2207,2211,72
30877,2107,2159,2193,70
30896,2014,2056,2110,69
30915,1933,1927,2029,62
30934,1851,1813,1925,58
30953,1773,1721,1821,57
30972,1747,1675,1758,58
30991,1721,1639,1703,57
31010,1699,1643,1674,55
31029,1677,1645,1655,55
31048,1675,1661,1645,55
31067,1683,1688,1655,53
31086,1715,1739,1684,53
31105,1741,1785,1719,57
31124,1773,1828,1727,59
31143,1789,1850,1772,67
31162,1787,1877,1787,59
31181,1803,1881,1822,58
31200,1789,1870,1827,56
31219,1829,1876,1843,59
31238,1832,1893,1854,61
31257,1847,1896,1867,61
31276,1845,1885,1844,71
31295,1847,1869,1827,59
31314,1816,1863,1809,57
31333,1803,1833,1799,59
31352,1820,1819,1781,57
31371,1839,1834,1801,58
31390,1884,1929,1879,59
31469,3346,3615,3355,137
31489,3475,3727,3539,116
31508,3226,3403,3359,105
31527,2859,2971,3047,91
31546,2485,2526,2695,81
31565,2159,2135,2373,74
31584,1903,1833,2100,63
31603,1765,1655,1918,62
31622,1694,1571,1807,59
31641,1683,1545,1748,56
31660,1700,1560,1721,57
31679,1701,1603,1739,55
31698,1746,1677,1785,58
31717,1789,1801,1892,57
31736,1891,1939,1983,67
31755,2003,2063,2089,73
31774,2107,2137,2169,68
31793,2136,2157,2198,78
31812,2120,2108,2170,71
31831,2023,2012,2089,64
31850,1931,1895,2007,67
31869,1835,1791,1913,59
31888,1781,1712,1831,61
31907,1747,1641,1759,55
31926,1709,1599,1705,52
31945,1669,1599,1639,55
31964,1655,1593,1607,53
31983,1659,1615,1615,55
32002,1683,1645,1629,53
32021,1709,1689,1657,55
32040,1755,1737,1701,57
32059,1775,1763,1747,59
32078,1775,1789,1757,57
32097,1775,1809,1779,56
32116,1780,1816,1787,58
32135,1771,1811,1806,59
32154,1797,1818,1810,59
32173,1810,1819,1813,58
32192,1816,1823,1823,63
32211,1814,1803,1820,59
32230,1815,1815,1810,62
32249,1811,1815,1814,57
32268,1819,1807,1788,57
32287,1831,1823,1775,57
32306,1855,1823,1772,57
32325,1879,1830,1765,57
32344,1884,1865,1800,61
32363,1913,2013,1951,63
32382,2110,2331,2228,75
32401,2508,2783,2661,84
32479,3283,3355,3447,133
32499,2888,2871,3094,99
32518,2445,2382,2637,85
32537,2075,1957,2255,71
32556,1819,1682,1965,62
32575,1673,1519,1764,57
32594,1615,1453,1657,54
32613,1588,1456,1621,56
32632,1598,1494,1629,56
32651,1661,1591,1675,53
32670,1755,1723,1779,59
32689,1880,1879,1908,61
32708,1991,2031,2037,71
32727,2091,2133,2139,73
32746,2121,2173,2199,71
32765,2120,2135,2175,71
32784,2072,2039,2111,69
32803,2003,1959,2035,62
32822,1931,1837,1947,63
32841,1863,1747,1853,60
32860,1785,1672,1749,56
32879,1707,1605,1655,55
32898,1673,1571,1625,53
32917,1657,1573,1597,53
32936,1675,1595,1599,52
32955,1701,1619,1619,55
32974,1737,1685,1651,55
32993,1747,1711,1682,57
33012,1759,1747,1705,57
33031,1763,1769,1736,57
33050,1759,1797,1749,58
33069,1774,1810,1769,58
33088,1811,1823,1800,59
33107,1833,1844,1796,61
33126,1859,1848,1817,55
33145,1833,1845,1803,57
33164,1821,1829,1805,60
33183,1817,1828,1791,58
33202,1810,1830,1785,55
33221,1827,1838,1780,59
33240,1845,1843,1757,61
33259,1837,1839,1768,67
33278,1848,1837,1741,57
33297,1817,1821,1739,56
33316,1809,1822,1751,55
33335,1817,1879,1803,59
33354,1929,2075,1983,63
33373,2171,2412,2323,77
33392,2566,2840,2735,93
33411,2955,3230,3145,103
33489,2791,2765,2979,110
33509,2441,2327,2570,90
33528,2056,1900,2155,62
33547,1746,1572,1816,57
33566,1579,1380,1595,51
33585,1498,1324,1467,51
33604,1497,1350,1437,50
33623,1559,1443,1477,52
33642,1630,1577,1565,59
33661,1721,1764,1721,57
33680,1821,1947,1891,63
33699,1943,2103,2079,71
33718,2043,2201,2219,72
33737,2135,2232,2265,74
33756,2151,2198,2246,73
33775,2121,2093,2165,71
33794,2057,1973,2071,69
33813,1945,1833,1933,59
33832,1837,1710,1803,57
33851,1753,1629,1703,52
33870,1715,1605,1623,56
33889,1707,1599,1583,55
33908,1706,1623,1577,55
33927,1717,1651,1579,55
33946,1725,1695,1599,52
33965,1735,1715,1631,57
33984,1761,1752,1677,53
34003,1779,1784,1716,59
34022,1819,1833,1741,59
34041,1833,1867,1771,57
34060,1839,1891,1787,61
34079,1815,1880,1807,57
34098,1817,1866,1806,59
34117,1809,1863,1802,57
34136,1822,1843,1812,61
34155,1847,1850,1811,59
34174,1849,1863,1817,59
34193,1847,1864,1790,59
34212,1832,1863,1791,56
34231,1829,1849,1783,57
34250,1816,1851,1771,52
34269,1823,1849,1779,57
34288,1875,1945,1854,61
34307,1995,2185,2063,71
34326,2287,2572,2445,88
34345,2729,3027,2910,95
34364,3113,3433,3308,107
34383,3305,3609,3573,116
34402,3259,3481,3566,110
34421,3043,3171,3321,102
34499,1984,1827,2039,82
34519,1832,1639,1845,59
34538,1689,1507,1671,55
34557,1611,1439,1573,54
34576,1590,1463,1525,56
34595,1609,1549,1580,53
34614,1673,1689,1685,57
34633,1779,1849,1839,61
34652,1911,2025,1995,63
34671,2039,2174,2123,72
34690,2139,2249,2193,72
34709,2181,2263,2211,61
34728,2133,2207,2156,69
34747,2045,2110,2075,68
34766,1967,2012,1964,62
34785,1875,1891,1863,59
34804,1803,1785,1767,57
34823,1747,1671,1659,56
34842,1708,1592,1633,57
34861,1691,1511,1624,55
34880,1676,1477,1589,53
34899,1675,1479,1595,55
34918,1689,1519,1611,53
34937,1723,1595,1641,52
34956,1765,1669,1656,54
34975,1797,1717,1691,61
34994,1806,1766,1710,56
35013,1801,1779,1725,57
35032,1797,1779,1771,57
35051,1785,1769,1765,57
35070,1802,1779,1769,59
35089,1819,1791,1780,57
35108,1837,1798,1770,57
35127,1845,1799,1741,57
35146,1828,1807,1747,58
35165,1828,1819,1733,58
35184,1819,1835,1733,56
35203,1822,1845,1746,59
35222,1854,1869,1773,60
35241,1892,1933,1819,58
35260,1945,2085,1982,63
35279,2123,2403,2300,77
35298,2479,2804,2733,89
35317,2875,3191,3169,103
35336,3149,3433,3469,116
35355,3207,3399,3539,111
35374,3037,3145,3339,107
35393,2764,2775,3013,89
35412,2423,2350,2642,81
35431,2123,1991,2267,69
35509,1743,1638,1655,75
35529,1707,1650,1607,55
35548,1628,1641,1575,51
35567,1607,1691,1621,55
35586,1657,1773,1753,59
35605,1765,1897,1897,61
35624,1897,2008,2063,70
35643,1999,2079,2169,72
35662,2057,2085,2215,73
35681,2068,2031,2197,69
35700,2037,1943,2125,67
35719,1991,1849,1995,62
35738,1931,1780,1889,61
35757,1865,1709,1783,59
35776,1817,1662,1687,51
35795,1765,1645,1627,52
35814,1719,1654,1597,53
35833,1712,1660,1587,49
35852,1719,1687,1580,53
35871,1755,1708,1613,57
35890,1779,1768,1639,56
35909,1784,1804,1690,63
35928,1779,1831,1733,57
35947,1791,1847,1743,57
35966,1783,1865,1775,57
35985,1756,1877,1817,56
36004,1828,1871,1833,59
36023,1839,1869,1847,61
36042,1849,1873,1835,62
36061,1838,1848,1814,62
36080,1831,1821,1812,60
36099,1839,1810,1787,58
36118,1829,1811,1787,57
36137,1839,1865,1827,61
36156,1931,2025,2007,69
36175,2131,2329,2301,77
36194,2399,2688,2707,87
36213,2723,3004,3076,99
36232,2971,3181,3319,107
36251,3032,3159,3348,107
36270,2933,2970,3181,100
36289,2717,2675,2888,90
36308,2425,2340,2547,85
36327,2137,2015,2228,73
36346,1887,1739,1955,59
36365,1716,1551,1739,55
36384,1627,1439,1607,53
36403,1593,1419,1526,54
36422,1583,1481,1541,55
36441,1655,1605,1613,56
36519,2233,2355,2365,101
36539,2317,2375,2425,82
36558,2228,2235,2317,77
36577,2105,2071,2164,71
36596,1957,1882,1983,63
36615,1839,1736,1833,56
36634,1765,1635,1710,52
36653,1719,1577,1639,57
36672,1707,1565,1599,55
36691,1704,1581,1575,51
36710,1707,1612,1581,53
36729,1703,1623,1599,55
36748,1703,1653,1642,55
36767,1721,1669,1691,55
36786,1749,1693,1735,58
36805,1783,1725,1791,55
36824,1800,1759,1833,60
36843,1817,1769,1845,59
36862,1809,1767,1836,57
36881,1823,1757,1835,59
36900,1817,1765,1791,58
36919,1817,1769,1789,57
36938,1833,1813,1811,59
36957,1879,1937,1945,61
36976,2039,2220,2233,75
36995,2359,2629,2651,89
37014,2780,3052,3095,101
37033,3117,3416,3483,110
37052,3274,3515,3643,117
37071,3213,3389,3519,111
37090,2991,3036,3229,101
37109,2723,2646,2869,86
37128,2445,2269,2501,75
37147,2231,1963,2203,71
37166,2063,1768,1963,57
37185,1946,1641,1787,57
37204,1881,1589,1701,55
37223,1842,1583,1659,55
37242,1845,1626,1683,55
37261,1885,1721,1773,59
37280,1960,1869,1903,67
37299,2071,2043,2043,68
37318,2159,2204,2164,71
37337,2248,2296,2250,74
37356,2255,2294,2260,70
37375,2214,2219,2199,75
37394,2119,2087,2093,61
37413,1993,1932,1948,62
37432,1884,1779,1817,57
37451,1788,1669,1707,55
37529,1829,1662,1673,76
37549,1817,1687,1689,58
37568,1741,1659,1647,54
37587,1719,1654,1647,55
37606,1715,1681,1668,59
37625,1721,1720,1685,60
37644,1747,1767,1736,57
37663,1749,1791,1775,57
37682,1779,1799,1785,59
37701,1797,1803,1797,59
37720,1828,1805,1805,58
37739,1855,1819,1785,57
37758,1849,1828,1779,59
37777,1845,1877,1823,58
37796,1925,2089,2003,69
37815,2202,2502,2387,83
37834,2671,3087,2905,99
37853,3179,3789,3436,113
37872,3592,4095,3913,125
37891,3790,4095,4087,134
37910,3646,4095,3882,121
37929,3293,3631,3476,106
37948,2919,3096,3029,91
37967,2589,2643,2653,78
37986,2351,2291,2333,75
38005,2196,2055,2119,67
38024,2095,1895,1951,62
38043,2008,1781,1830,57
38062,1925,1708,1758,55
38081,1891,1691,1717,57
38100,1893,1741,1737,59
38119,1964,1855,1815,61
38138,2077,2013,1948,63
38157,2171,2151,2063,69
38176,2222,2219,2137,73
38195,2204,2223,2156,73
38214,2153,2155,2126,73
38233,2075,2035,2036,68
38252,1996,1901,1929,61
38271,1912,1757,1791,60
38290,1823,1673,1689,57
38309,1766,1589,1599,53
38328,1711,1525,1541,48
38347,1679,1489,1512,51
38366,1656,1523,1515,45
38385,1671,1525,1523,52
38404,1701,1573,1563,51
38423,1739,1638,1597,56
38442,1770,1684,1647,57
38461,1775,1767,1688,55
38539,1963,1946,1908,83
38559,1977,1910,1881,61
38578,1875,1806,1803,57
38597,1783,1725,1709,57
38616,1743,1658,1656,55
38635,1735,1659,1607,53
38654,1757,1679,1593,53
38673,1781,1683,1595,54
38692,1785,1705,1608,56
38711,1803,1771,1671,53
38730,1877,2007,1903,61
38749,2207,2495,2359,75
38768,2741,3220,2987,101
38787,3342,4095,3736,121
38806,3902,4095,4095,133
38825,4095,4095,4095,135
38844,3949,4095,4095,126
38863,3531,4095,3991,121
38882,3062,3534,3379,101
38901,2675,2943,2901,90
38920,2404,2527,2525,79
38939,2234,2227,2270,71
38958,2141,2037,2072,73
38977,2031,1879,1900,61
38996,1967,1753,1783,56
39015,1908,1676,1699,55
39034,1895,1679,1715,57
39053,1938,1769,1768,60
39072,2011,1907,1871,61
39091,2104,2043,1973,63
39110,2153,2121,2028,70
39129,2159,2125,2043,68
39148,2132,2043,2009,61
39167,2055,1934,1944,62
39186,1973,1788,1848,61
39205,1903,1679,1757,57
39224,1817,1561,1637,57
39243,1727,1467,1561,53
39262,1644,1391,1499,49
39281,1613,1359,1461,50
39300,1584,1367,1465,50
39319,1608,1391,1466,52
39338,1642,1444,1503,52
39357,1663,1493,1542,51
39376,1688,1547,1581,55
39395,1705,1577,1627,53
39414,1716,1607,1671,57
39433,1737,1625,1702,56
39452,1749,1645,1721,61
39471,1775,1661,1739,55
39549,1881,1710,1791,77
39569,1879,1692,1773,61
39588,1807,1603,1679,55
39607,1749,1557,1619,53
39626,1705,1518,1589,55
39645,1684,1506,1565,53
39664,1688,1515,1565,51
39683,1701,1528,1581,48
39702,1743,1553,1604,57
39721,1797,1589,1640,55
39740,1814,1635,1675,55
39759,1834,1715,1763,61
39778,1880,1916,1981,70
39797,2093,2299,2413,83
39816,2513,2809,2965,98
39835,2974,3356,3528,115
39854,3315,3743,3948,125
39873,3405,3767,3977,124
39892,3227,3411,3671,112
39911,2887,2925,3178,96
39930,2517,2426,2717,81
39949,2169,1993,2297,69
39968,1913,1647,1942,56
39987,1733,1438,1695,55
40006,1620,1331,1517,51
40025,1561,1288,1421,47
40044,1553,1331,1395,46
40063,1561,1431,1447,48
40082,1627,1578,1571,54
40101,1727,1753,1735,59
40120,1867,1928,1934,62
40139,1989,2063,2117,69
40158,2069,2133,2230,75
40177,2084,2122,2260,73
40196,2044,2059,2199,73
40215,1961,1980,2107,63
40234,1899,1880,1973,60
40253,1863,1802,1819,59
40272,1838,1752,1702,55
40291,1815,1689,1593,60
40310,1779,1663,1512,51
40329,1749,1641,1451,51
40348,1734,1644,1417,47
40367,1728,1659,1420,52
40386,1753,1699,1432,51
40405,1764,1733,1453,51
40424,1769,1773,1465,53
40443,1757,1775,1511,51
40462,1735,1756,1555,51
40481,1735,1767,1580,53
40559,1918,1909,1789,79
40579,1903,1866,1786,59
40598,1807,1771,1699,56
40617,1739,1700,1605,52
40636,1723,1689,1567,55
40655,1746,1689,1561,54
40674,1771,1720,1589,55
40693,1803,1789,1719,57
40712,1882,1929,2003,64
40731,2094,2126,2443,83
40750,2477,2367,2983,101
40769,2867,2581,3469,115
40788,3133,2703,3769,119
40807,3182,2679,3757,121
40826,3042,2530,3475,105
40845,2759,2313,3003,93
40864,2428,2091,2571,79
40883,2133,1901,2153,61
40902,1899,1763,1855,55
40921,1735,1683,1611,53
40940,1621,1623,1449,50
40959,1565,1595,1383,51
40978,1557,1621,1419,51
40997,1608,1679,1541,52
41016,1726,1756,1719,55
41035,1899,1879,1949,69
41054,2057,1972,2149,71
41073,2185,2030,2283,74
41092,2221,2040,2333,77
41111,2185,2003,2286,73
41130,2087,1939,2152,71
41149,1967,1862,2015,61
41168,1855,1800,1837,56
41187,1785,1765,1711,55
41206,1716,1727,1595,53
41225,1685,1709,1509,51
41244,1652,1703,1477,51
41263,1643,1702,1455,51
41282,1659,1719,1481,51
41301,1706,1739,1502,52
41320,1753,1763,1555,53
41339,1783,1799,1628,53
41358,1815,1806,1674,56
41377,1814,1819,1719,55
41396,1807,1816,1737,56
41415,1811,1823,1740,55
41434,1829,1818,1750,57
41453,1843,1829,1753,57
41472,1839,1831,1739,58
41491,1844,1845,1718,61
41570,2119,2089,2207,93
41590,2493,2293,2749,94
41609,2840,2463,3287,108
41628,3129,2591,3789,119
41647,3261,2643,4080,125
41666,3224,2616,3935,120
41685,3021,2492,3561,109
41704,2717,2329,3103,95
41723,2439,2151,2649,79
41742,2172,1995,2281,71
41761,1997,1879,1983,59
41780,1867,1819,1807,57
41799,1806,1785,1687,56
41818,1785,1781,1636,55
41837,1789,1802,1595,53
41856,1811,1837,1626,55
41875,1849,1886,1710,58
41894,1901,1935,1831,59
41913,1975,1987,1957,63
41932,2023,2027,2069,67
41951,2076,2045,2119,71
41970,2078,2055,2109,71
41989,2040,2032,2043,63
42008,1972,1992,1934,63
42027,1901,1915,1799,57
42046,1809,1863,1670,57
42065,1747,1818,1574,47
42084,1716,1797,1479,51
42103,1689,1774,1437,47
42122,1703,1773,1427,51
42141,1691,1771,1429,53
42160,1681,1775,1461,51
42179,1699,1784,1499,53
42198,1719,1804,1555,52
42217,1755,1823,1597,53
42236,1789,1849,1651,58
42255,1822,1868,1687,54
42274,1819,1893,1715,50
42293,1815,1898,1741,56
42312,1802,1889,1735,57
42331,1787,1887,1720,55
42350,1771,1879,1705,54
42369,1789,1883,1687,57
42388,1821,1883,1685,57
42407,1835,1877,1657,57
42426,1833,1876,1627,53
42445,1827,1869,1621,53
42464,1827,1882,1654,54
42483,1864,1916,1812,61
42502,2063,2052,2171,74
42581,3183,2790,4095,159
42601,3091,2666,4059,127
42620,2774,2431,3500,107
42639,2451,2194,2939,87
42658,2165,1979,2443,75
42677,1935,1853,2088,63
42696,1811,1784,1821,59
42715,1737,1753,1663,53
42734,1750,1769,1595,52
42753,1768,1802,1561,53
42772,1807,1821,1590,55
42791,1835,1878,1647,57
42810,1877,1909,1715,57
42829,1927,1937,1814,60
42848,1977,1965,1919,57
42867,2020,1993,1995,61
42886,2067,2005,2053,67
42905,2041,2007,2056,67
42924,2013,1976,1995,73
42943,1957,1956,1897,58
42962,1886,1907,1768,57
42981,1822,1873,1659,54
43000,1775,1855,1565,50
43019,1763,1862,1499,51
43038,1757,1865,1481,51
43057,1751,1881,1453,53
43076,1761,1880,1463,54
43095,1766,1881,1485,51
43114,1785,1871,1507,52
43133,1790,1892,1560,45
43152,1830,1909,1619,56
43171,1849,1918,1659,55
43190,1862,1937,1708,55
43209,1845,1917,1715,55
43228,1845,1926,1733,57
43247,1836,1913,1723,57
43266,1831,1901,1725,58
43285,1864,1899,1715,56
43304,1869,1893,1709,56
43323,1853,1893,1707,59
43342,1849,1901,1676,56
43361,1839,1886,1669,55
43380,1839,1895,1647,55
43399,1843,1897,1637,51
43418,1868,1909,1652,55
43437,1928,1965,1785,62
43456,2084,2079,2107,69
43475,2332,2237,2605,89
43494,2581,2403,3148,104
43513,2751,2523,3627,118
43592,2513,2365,3019,111
43612,2259,2201,2537,77
43631,2006,2021,2119,63
43650,1843,1916,1823,56
43669,1767,1891,1650,55
43688,1753,1877,1563,52
43707,1749,1881,1561,52
43726,1739,1899,1581,55
43745,1755,1911,1641,55
43764,1803,1939,1736,56
43783,1879,1949,1854,61
43802,1957,1980,1955,63
43821,2019,2007,2054,70
43840,2066,2007,2092,73
43859,2037,1976,2069,68
43878,1977,1939,1992,63
43897,1916,1895,1901,62
43916,1869,1848,1791,57
43935,1851,1837,1687,55
43954,1833,1845,1605,55
43973,1818,1837,1548,53
43992,1819,1849,1518,52
44011,1807,1829,1485,53
44030,1800,1861,1485,53
44049,1807,1863,1493,51
44068,1833,1876,1543,52
44087,1853,1894,1591,55
44106,1875,1903,1637,58
44125,1869,1901,1685,57
44144,1851,1902,1711,54
44163,1853,1900,1727,57
44182,1833,1877,1746,58
44201,1837,1895,1739,60
44220,1855,1891,1755,59
44239,1881,1895,1755,57
44258,1881,1854,1742,55
44277,1876,1854,1709,56
44296,1853,1833,1679,53
44315,1880,1831,1687,55
44334,1928,1863,1797,59
44353,2073,1963,2068,70
44372,2267,2101,2415,83
44391,2471,2253,2840,92
44410,2579,2323,3147,102
44429,2580,2347,3245,101
44448,2493,2283,3172,95
44467,2361,2187,2917,93
44486,2205,2093,2611,77
44505,2067,2002,2285,72
44524,1945,1927,1983,60
44603,1933,1949,1688,74
44623,1938,1939,1693,61
44642,1875,1887,1655,59
44661,1805,1849,1660,55
44680,1804,1853,1711,56
44699,1839,1877,1791,60
44718,1895,1927,1890,61
44737,1951,1964,1945,61
44756,1966,1971,1959,71
44775,1963,1962,1951,62
44794,1915,1934,1876,61
44813,1875,1928,1799,56
44832,1848,1908,1727,54
44851,1835,1899,1659,55
44870,1847,1891,1623,55
44889,1843,1891,1599,57
44908,1835,1891,1591,56
44927,1830,1891,1579,53
44946,1837,1892,1583,53
44965,1837,1887,1600,53
44984,1849,1885,1643,57
45003,1879,1934,1671,56
45022,1887,1927,1687,54
45041,1894,1944,1719,58
45060,1877,1933,1735,57
45079,1867,1940,1733,58
45098,1853,1928,1741,56
45117,1855,1931,1739,59
45136,1873,1927,1735,57
45155,1877,1927,1725,56
45174,1884,1917,1710,58
45193,1885,1935,1770,55
45212,1976,1992,1928,60
45231,2159,2087,2215,72
45250,2367,2223,2551,87
45269,2508,2325,2886,91
45288,2551,2375,3048,98
45307,2483,2349,3038,93
45326,2339,2247,2872,87
45345,2168,2136,2634,83
45364,2019,2015,2339,69
45383,1908,1934,2087,67
45402,1852,1877,1893,59
45421,1800,1842,1765,56
45440,1787,1836,1661,59
45459,1770,1843,1621,55
45478,1769,1848,1609,55
45497,1781,1851,1645,53
45516,1823,1897,1707,57
45535,1891,1933,1809,61
45618,2133,2149,2205,91
45637,2091,2117,2149,73
45656,1959,2031,1982,70
45675,1833,1963,1823,57
45694,1759,1895,1685,55
45713,1724,1839,1593,53
45732,1723,1805,1559,55
45751,1771,1787,1533,53
45770,1819,1813,1561,55
45789,1840,1831,1596,59
45808,1871,1837,1622,56
45827,1868,1839,1644,57
45846,1855,1836,1683,55
45865,1868,1847,1707,56
45884,1878,1852,1737,55
45903,1895,1887,1771,59
45922,1913,1901,1783,60
45941,1896,1919,1806,61
45960,1873,1925,1817,57
45979,1863,1913,1807,57
45998,1847,1913,1803,55
46017,1865,1895,1791,61
46036,1878,1897,1787,59
46055,1891,1883,1798,57
46074,1931,1899,1809,56
46093,2011,1949,1929,63
46112,2185,2043,2119,71
46131,2357,2149,2398,75
46150,2467,2246,2647,85
46169,2487,2275,2792,89
46188,2411,2259,2813,89
46207,2281,2171,2683,85
46226,2116,2073,2479,75
46245,1956,1949,2234,72
46264,1855,1874,2024,58
46283,1791,1815,1838,57
46302,1773,1789,1719,56
46321,1772,1791,1641,55
46340,1784,1805,1595,56
46359,1783,1810,1607,54
46378,1800,1833,1647,56
46397,1844,1887,1751,52
46416,1911,1933,1832,60
46435,2001,1977,1947,61
46454,2056,1991,2025,69
46473,2063,1975,2083,73
46492,2025,1944,2072,63
46511,1961,1909,2054,69
46530,1899,1874,1997,63
46549,1852,1852,1912,59
46628,1917,1979,1805,79
46647,1917,1961,1771,56
46666,1833,1876,1687,53
46685,1789,1842,1642,55
46704,1773,1813,1625,55
46723,1769,1816,1627,56
46742,1767,1802,1637,55
46761,1775,1791,1663,56
46780,1791,1790,1699,57
46799,1816,1797,1739,59
46818,1855,1817,1769,57
46837,1891,1833,1787,57
46856,1903,1845,1797,59
46875,1899,1847,1805,60
46894,1915,1875,1837,59
46913,2007,1949,1951,63
46932,2198,2075,2148,71
46951,2407,2212,2463,83
46970,2536,2324,2728,88
46989,2553,2376,2927,103
47008,2452,2329,2955,93
47027,2319,2245,2813,87
47046,2148,2111,2620,82
47065,2005,2019,2365,73
47084,1901,1927,2163,71
47103,1832,1864,1976,59
47122,1807,1823,1845,61
47141,1783,1801,1741,56
47160,1761,1787,1687,53
47179,1779,1802,1663,55
47198,1817,1831,1690,53
47217,1883,1900,1767,57
47236,1959,1955,1851,61
47255,2025,1989,1951,70
47274,2065,2009,2043,69
47293,2057,2011,2085,69
47312,2025,2003,2072,71
47331,1976,1972,2060,61
47350,1945,1956,2008,68
47369,1899,1929,1940,61
47388,1863,1915,1869,59
47407,1829,1887,1811,61
47426,1787,1865,1747,57
47445,1757,1851,1718,56
47464,1783,1849,1708,55
47483,1788,1867,1699,57
47502,1837,1869,1685,53
47521,1851,1893,1691,56
47540,1867,1899,1707,58
47559,1847,1891,1711,57
47638,2029,2037,1918,85
47658,2014,2013,1917,68
47677,1907,1910,1827,59
47696,1831,1856,1764,59
47715,1753,1816,1709,55
47734,1773,1823,1705,56
47753,1839,1879,1753,57
47772,1997,1979,1878,69
47791,2238,2137,2131,73
47810,2461,2295,2443,83
47829,2607,2423,2744,87
47848,2648,2471,2965,95
47867,2584,2455,3036,98
47886,2443,2361,2932,91
47905,2258,2253,2728,89
47924,2088,2111,2469,77
47943,1944,1975,2249,69
47962,1837,1894,2041,69
47981,1787,1823,1909,60
48000,1785,1818,1819,58
48019,1803,1811,1774,59
48038,1828,1833,1739,57
48057,1861,1849,1749,59
48076,1893,1881,1775,57
48095,1937,1927,1835,59
48114,1979,1949,1932,58
48133,2031,1999,2007,63
48152,2057,2022,2053,69
48171,2043,2025,2075,69
48190,2006,2004,2067,69
48209,1952,1963,2003,63
48228,1882,1907,1956,60
48247,1819,1882,1881,59
48266,1790,1861,1821,59
48285,1781,1853,1752,57
48304,1799,1855,1719,58
48323,1800,1863,1699,57
48342,1813,1861,1675,55
48361,1821,1880,1675,53
48380,1837,1876,1693,53
48399,1863,1893,1715,57
48418,1877,1910,1737,59
48437,1893,1915,1765,59
48456,1896,1911,1783,59
48475,1869,1929,1784,57
48494,1853,1915,1781,59
48513,1847,1913,1809,58
48532,1855,1914,1789,57
48551,1881,1931,1811,59
48570,1895,1933,1783,59
48649,2023,2057,1887,82
48669,2131,2123,1971,69
48688,2269,2183,2087,75
48707,2444,2292,2311,75
48726,2579,2395,2597,85
48745,2629,2463,2834,91
48764,2579,2479,2950,93
48783,2461,2409,2917,91
48802,2297,2293,2746,87
48821,2137,2163,2538,79
48840,1995,2031,2313,77
48859,1891,1931,2103,63
48878,1827,1861,1960,59
48897,1805,1811,1870,60
48916,1803,1783,1791,57
48935,1829,1823,1771,59
48954,1846,1848,1769,57
48973,1890,1879,1797,60
48992,1933,1913,1833,61
49011,1992,1957,1911,63
49030,2043,1990,1967,63
49049,2091,2015,2045,69
49068,2089,2025,2079,70
49087,2063,2005,2079,66
49106,1993,1983,2031,67
49125,1915,1928,1967,62
49144,1845,1897,1887,58
49163,1783,1855,1839,57
49182,1773,1845,1755,59
49201,1805,1839,1723,57
49220,1817,1850,1701,55
49239,1837,1863,1685,55
49258,1827,1853,1691,54
49277,1817,1851,1691,54
49296,1816,1861,1720,47
49315,1829,1865,1734,57
49334,1864,1891,1757,57
49353,1871,1903,1775,61
49372,1884,1917,1801,64
49391,1881,1925,1814,59
49410,1865,1912,1805,58
49429,1863,1912,1815,57
49448,1863,1901,1815,59
49467,1893,1913,1791,57
49486,1908,1909,1791,60
49505,1897,1909,1783,55
49524,1891,1900,1784,60
49543,1867,1887,1774,57
49562,1849,1875,1754,57
49581,1851,1880,1738,57
49660,2534,2394,2297,99
49680,2797,2565,2620,89
49699,2860,2623,2829,93
49718,2783,2595,2943,99
49737,2621,2507,2927,93
49756,2407,2394,2794,89
49775,2175,2185,2601,80
49794,1979,2021,2331,73
49813,1839,1889,2123,62
49832,1787,1829,1940,60
49851,1784,1763,1814,57
49870,1790,1763,1748,57
49889,1815,1765,1701,55
49908,1831,1817,1701,55
49927,1850,1831,1736,58
49946,1914,1901,1802,56
49965,2009,1980,1900,63
49984,2099,2019,1997,67
50003,2147,2029,2076,64
50022,2133,2039,2117,69
50041,2078,2028,2131,69
50060,1983,1991,2077,63
50079,1919,1943,2029,59
50098,1867,1893,1947,61
50117,1839,1869,1879,60
50136,1830,1875,1814,58
50155,1819,1848,1758,62
50174,1799,1831,1717,59
50193,1785,1835,1692,57
50212,1791,1839,1688,55
50231,1811,1848,1701,56
50250,1845,1864,1715,57
50269,1853,1899,1733,60
50288,1867,1903,1759,59
50307,1861,1919,1775,59
50326,1844,1931,1773,57
50345,1839,1925,1773,58
50364,1847,1929,1791,58
50383,1856,1947,1815,59
50402,1875,1957,1823,60
50421,1881,1959,1824,60
50440,1878,1945,1823,57
50459,1864,1939,1812,59
50478,1875,1909,1816,59
50497,1873,1909,1804,59
50516,1877,1902,1787,59
50535,1869,1912,1769,57
50554,1881,1927,1759,59
50573,1877,1927,1764,61
50592,1897,1983,1798,61
50671,3058,2861,2938,123
50691,3053,2889,3145,105
50710,2812,2743,3051,93
50729,2521,2540,2878,86
50748,2249,2328,2613,83
50767,2037,2093,2358,72
50786,1877,1957,2119,63
50805,1782,1835,1933,59
50824,1738,1782,1791,55
50843,1715,1745,1707,55
50862,1734,1737,1663,56
50881,1767,1763,1677,53
50900,1835,1837,1721,55
50919,1919,1928,1815,59
50938,2031,2009,1918,61
50957,2091,2078,2019,68
50976,2105,2109,2108,69
50995,2099,2116,2151,69
51014,2079,2088,2157,68
51033,2035,2035,2107,71
51052,1971,1961,2027,62
51071,1898,1907,1955,72
51090,1827,1847,1864,60
51109,1769,1801,1797,59
51128,1745,1770,1755,55
51147,1747,1757,1721,56
51166,1797,1763,1717,55
51185,1823,1789,1736,56
51204,1828,1803,1763,59
51223,1820,1783,1763,58
51242,1822,1788,1757,57
51261,1815,1800,1781,57
51280,1823,1801,1781,57
51299,1849,1811,1803,61
51318,1868,1817,1815,59
51337,1885,1829,1811,61
51356,1874,1843,1788,59
51375,1851,1837,1785,57
51394,1837,1851,1779,59
51413,1837,1861,1778,55
51432,1851,1881,1781,57
51451,1876,1895,1764,59
51470,1877,1908,1765,57
51489,1867,1909,1767,61
51508,1865,1887,1749,57
51527,1850,1881,1754,59
51546,1839,1884,1742,56
51565,1882,1958,1807,58
51584,2094,2131,1973,63
51603,2455,2397,2265,77
51682,3157,3188,3402,135
51702,2922,2991,3209,104
51721,2568,2665,2862,86
51740,2220,2328,2517,77
51759,1959,2063,2211,69
51778,1783,1881,1964,59
51797,1711,1763,1813,55
51816,1723,1727,1722,56
51835,1749,1716,1701,56
51854,1812,1765,1709,61
51873,1866,1831,1765,57
51892,1933,1919,1835,59
51911,2031,2013,1925,62
51930,2119,2093,2023,68
51949,2173,2148,2133,72
51968,2207,2175,2173,72
51987,2152,2185,2188,73
52006,2091,2133,2146,73
52025,1993,2029,2052,64
52044,1908,1947,1963,61
52063,1843,1869,1876,59
52082,1816,1818,1787,61
52101,1799,1787,1719,57
52120,1789,1779,1677,58
52139,1765,1782,1647,56
52158,1767,1784,1639,55
52177,1764,1779,1647,55
52196,1769,1801,1673,55
52215,1799,1823,1704,59
52234,1809,1869,1765,61
52253,1823,1899,1784,60
52272,1836,1928,1803,57
52291,1836,1931,1799,58
52310,1833,1935,1801,59
52329,1838,1941,1789,56
52348,1847,1944,1767,60
52367,1869,1954,1771,57
52386,1878,1938,1800,59
52405,1886,1916,1784,57
52424,1865,1895,1775,57
52443,1851,1868,1753,59
52462,1835,1875,1757,57
52481,1837,1882,1753,57
52500,1835,1895,1763,59
52519,1851,1915,1773,59
52538,1895,2003,1852,61
52557,2131,2222,2028,69
52576,2523,2541,2349,76
52595,2933,2901,2725,85
52614,3248,3237,3053,100
52693,2769,2901,2874,108
52713,2453,2510,2523,85
52732,2131,2139,2171,69
52751,1919,1895,1895,57
52770,1784,1717,1723,61
52789,1717,1647,1623,54
52808,1708,1626,1572,55
52827,1755,1658,1606,56
52846,1844,1769,1691,57
52865,1972,1903,1822,61
52884,2122,2065,1957,69
52903,2221,2183,2083,71
52922,2263,2249,2125,71
52941,2247,2239,2151,72
52960,2189,2181,2136,71
52979,2090,2077,2057,61
52998,1997,1979,1971,68
53017,1915,1885,1889,60
53036,1855,1785,1802,58
53055,1789,1715,1716,57
53074,1756,1669,1662,55
53093,1733,1652,1608,53
53112,1727,1643,1599,55
53131,1749,1659,1629,55
53150,1775,1691,1656,55
53169,1811,1727,1681,57
53188,1815,1769,1723,56
53207,1812,1801,1741,59
53226,1817,1820,1763,59
53245,1815,1836,1779,53
53264,1861,1843,1779,61
53283,1847,1849,1785,60
53302,1849,1850,1812,59
53321,1839,1853,1786,58
53340,1839,1835,1787,59
53359,1831,1827,1775,58
53378,1819,1823,1757,54
53397,1828,1814,1759,57
53416,1814,1815,1752,57
53435,1843,1811,1725,57
53454,1865,1802,1711,69
53473,1839,1831,1725,55
53492,1878,1911,1799,60
53511,2072,2137,1990,67
53530,2484,2504,2304,75
53549,2957,2932,2668,87
53568,3355,3341,3017,99
53587,3535,3539,3197,96
53606,3422,3507,3187,99
53625,3129,3179,2996,92
53704,2031,1932,1913,86
53724,1854,1747,1743,57
53743,1700,1584,1591,54
53762,1592,1491,1517,52
53781,1609,1531,1519,54
53800,1705,1644,1619,53
53819,1863,1805,1753,58
53838,2027,1991,1909,63
53857,2141,2147,2053,69
53876,2227,2248,2165,73
53895,2255,2269,2216,71
53914,2219,2229,2193,72
53933,2167,2141,2127,69
53952,2083,2029,2038,62
53971,1971,1887,1949,61
53990,1868,1755,1843,59
54009,1772,1649,1769,56
54028,1707,1592,1718,54
54047,1689,1546,1683,56
54066,1694,1543,1677,56
54085,1711,1559,1695,57
54104,1737,1583,1707,55
54123,1757,1606,1735,57
54142,1767,1622,1743,58
54161,1783,1646,1734,54
54180,1811,1676,1741,55
54199,1834,1715,1755,59
54218,1847,1742,1769,57
54237,1840,1768,1764,61
54256,1823,1788,1772,57
54275,1807,1789,1757,58
54294,1810,1800,1741,58
54313,1823,1821,1722,57
54332,1855,1821,1721,56
54351,1861,1838,1704,55
54370,1855,1843,1689,60
54389,1844,1847,1708,58
54408,1853,1933,1775,59
54427,2029,2164,1977,63
54446,2427,2547,2299,77
54465,2895,3036,2729,89
54484,3305,3502,3131,103
54503,3507,3751,3365,107
54522,3442,3660,3383,103
54541,3163,3307,3157,95
54560,2780,2855,2823,88
54579,2406,2421,2475,78
54598,2093,2055,2165,69
54617,1845,1775,1907,60
54636,1695,1581,1711,59
54715,1823,1711,1767,79
54735,1967,1913,1902,63
54754,2036,2027,1977,69
54773,2100,2143,2079,73
54792,2135,2206,2143,73
54811,2147,2211,2159,62
54830,2120,2159,2141,70
54849,2071,2067,2075,67
54868,1975,1943,1976,62
54887,1899,1821,1869,57
54906,1815,1707,1769,59
54925,1747,1615,1682,54
54944,1693,1561,1621,53
54963,1675,1549,1609,55
54982,1701,1581,1597,55
55001,1719,1625,1611,52
55020,1753,1673,1641,53
55039,1763,1695,1687,55
55058,1773,1721,1704,55
55077,1773,1747,1725,59
55096,1769,1751,1759,57
55115,1803,1799,1797,57
55134,1821,1823,1823,59
55153,1827,1833,1813,69
55172,1832,1835,1833,62
55191,1813,1821,1813,60
55210,1785,1798,1800,59
55229,1791,1781,1779,59
55248,1821,1784,1767,59
55267,1843,1799,1737,56
55286,1846,1798,1734,58
55305,1839,1809,1724,57
55324,1837,1837,1736,59
55343,1892,1999,1851,60
55362,2106,2334,2139,73
55381,2530,2837,2604,89
55400,2975,3411,3099,102
55419,3338,3923,3563,119
55438,3477,4087,3753,120
55457,3347,3829,3638,111
55476,3048,3373,3287,101
55495,2709,2888,2869,87
55514,2375,2463,2507,77
55533,2109,2091,2183,72
55552,1941,1830,1948,61
55571,1828,1703,1801,59
55590,1769,1611,1717,54
55609,1750,1609,1676,55
55628,1779,1619,1684,54
55647,1839,1719,1755,59
55726,2284,2355,2327,93
55746,2283,2319,2335,75
55765,2171,2197,2219,71
55784,2038,2027,2087,69
55803,1945,1877,1935,54
55822,1849,1726,1791,57
55841,1798,1637,1695,55
55860,1762,1591,1629,56
55879,1753,1558,1598,53
55898,1776,1563,1589,55
55917,1785,1575,1608,53
55936,1800,1621,1627,59
55955,1788,1643,1653,55
55974,1779,1673,1662,59
55993,1777,1716,1708,55
56012,1787,1745,1737,59
56031,1811,1779,1779,60
56050,1827,1788,1806,59
56069,1831,1813,1803,61
56088,1831,1807,1815,60
56107,1829,1798,1804,59
56126,1821,1788,1814,59
56145,1813,1784,1797,57
56164,1831,1780,1769,59
56183,1843,1773,1767,57
56202,1843,1767,1753,59
56221,1829,1762,1739,59
56240,1817,1751,1705,55
56259,1805,1726,1703,57
56278,1809,1748,1693,55
56297,1832,1827,1735,59
56316,1941,2057,1935,63
56335,2195,2471,2327,78
56354,2549,3004,2824,94
56373,2935,3601,3357,107
56392,3183,4041,3740,119
56411,3253,4051,3820,118
56430,3113,3695,3566,115
56449,2867,3220,3161,97
56468,2584,2733,2745,85
56487,2299,2315,2349,75
56506,2073,1965,2043,61
56525,1897,1753,1846,56
56544,1805,1626,1719,52
56563,1769,1566,1673,55
56582,1764,1575,1645,57
56601,1799,1655,1687,57
56620,1865,1775,1791,58
56639,1949,1918,1925,58
56658,2023,2063,2065,71
56737,2254,2300,2327,91
56757,2139,2141,2164,69
56776,1965,1916,1965,59
56795,1831,1721,1770,58
56814,1739,1596,1651,55
56833,1688,1531,1547,54
56852,1683,1500,1528,56
56871,1693,1499,1524,53
56890,1705,1541,1549,53
56909,1721,1567,1580,51
56928,1747,1623,1631,48
56947,1775,1677,1661,57
56966,1809,1737,1717,57
56985,1829,1768,1753,59
57004,1845,1797,1755,56
57023,1830,1812,1756,58
57042,1830,1813,1766,59
57061,1812,1801,1775,55
57080,1821,1789,1773,59
57099,1827,1797,1783,59
57118,1838,1789,1757,60
57137,1834,1781,1750,59
57156,1819,1763,1749,56
57175,1815,1741,1725,57
57194,1812,1721,1695,54
57213,1804,1722,1687,57
57232,1815,1747,1684,56
57251,1823,1771,1714,57
57270,1854,1906,1821,59
57289,1989,2189,2086,71
57308,2292,2651,2521,85
57327,2659,3196,3055,99
57346,2995,3701,3539,117
57365,3171,4007,3819,123
57384,3150,3849,3744,118
57403,2969,3430,3372,103
57422,2697,2909,2959,89
57441,2395,2431,2535,77
57460,2137,2031,2159,63
57479,1943,1757,1890,59
57498,1823,1597,1726,53
57517,1757,1515,1622,54
57536,1725,1496,1594,59
57555,1738,1531,1587,55
57574,1767,1630,1674,57
57593,1838,1781,1815,60
57612,1959,1967,1978,62
57631,2067,2135,2123,71
57650,2152,2239,2231,75
57669,2181,2261,2275,71
57748,2023,1960,1978,79
57768,1946,1818,1835,61
57787,1791,1647,1679,55
57806,1675,1541,1519,52
57825,1624,1481,1507,45
57844,1620,1478,1462,47
57863,1651,1503,1496,53
57882,1685,1567,1549,51
57901,1727,1634,1610,57
57920,1765,1677,1659,56
57939,1775,1721,1708,55
57958,1774,1755,1736,59
57977,1798,1768,1763,53
57996,1812,1791,1778,57
58015,1832,1815,1783,57
58034,1829,1833,1831,57
58053,1821,1831,1799,59
58072,1803,1818,1767,56
58091,1787,1799,1741,56
58110,1779,1782,1717,56
58129,1800,1774,1725,57
58148,1815,1771,1714,57
58167,1831,1763,1705,56
58186,1833,1759,1687,55
58205,1831,1754,1689,56
58224,1833,1751,1675,55
58243,1811,1749,1685,56
58262,1822,1785,1684,57
58281,1845,1861,1765,57
58300,1913,2079,1942,67
58319,2149,2483,2342,81
58338,2507,3031,2876,92
58357,2893,3630,3486,114
58376,3195,4095,3990,124
58395,3303,4095,4079,121
58414,3224,3827,3811,117
58433,2981,3339,3343,103
58452,2679,2871,2876,93
58471,2367,2414,2446,75
58490,2121,2079,2109,63
58509,1961,1839,1876,57
58528,1855,1715,1754,55
58547,1824,1663,1685,55
58566,1817,1661,1701,54
58585,1829,1735,1763,59
58604,1875,1827,1851,59
58623,1933,1955,2003,71
58642,2027,2093,2137,73
58661,2121,2211,2268,75
58680,2194,2295,2332,79
58758,2126,2077,2095,85
58778,2024,1887,1918,62
58797,1861,1694,1715,54
58816,1727,1562,1567,55
58835,1653,1467,1480,53
58854,1620,1449,1430,47
58873,1624,1439,1443,51
58892,1625,1485,1487,54
58911,1651,1553,1545,53
58930,1675,1615,1607,57
58949,1740,1691,1671,57
58968,1765,1743,1725,61
58987,1786,1765,1772,57
59006,1802,1759,1789,59
59025,1791,1760,1789,58
59044,1799,1749,1783,55
59063,1820,1743,1781,58
59082,1829,1725,1755,59
59101,1837,1722,1751,57
59120,1811,1707,1739,56
59139,1785,1715,1695,57
59158,1769,1719,1689,55
59177,1764,1720,1689,55
59196,1747,1724,1678,59
59215,1783,1751,1677,54
59234,1827,1763,1672,55
59253,1797,1772,1675,57
59272,1811,1775,1679,57
59291,1806,1769,1675,55
59310,1800,1770,1699,54
59329,1822,1847,1735,59
59348,1903,2059,1935,63
59367,2118,2453,2301,77
59386,2489,2997,2845,93
59405,2862,3589,3423,111
59424,3147,4067,3887,125
59443,3275,4095,4055,123
59462,3163,3738,3793,111
59481,2934,3247,3365,103
59500,2618,2735,2887,87
59519,2333,2273,2454,72
59538,2065,1875,2085,61
59557,1867,1595,1832,57
59576,1737,1437,1657,52
59595,1695,1375,1575,55
59614,1685,1399,1555,51
59633,1705,1491,1610,53
59652,1763,1624,1727,68
59671,1837,1804,1879,63
59690,1925,1968,2039,69
59769,2257,2265,2382,93
59789,2171,2099,2232,74
59808,1991,1865,2013,61
59827,1828,1655,1807,57
59846,1724,1531,1656,55
59865,1659,1451,1533,54
59884,1641,1433,1470,52
59903,1636,1453,1467,53
59922,1643,1479,1481,47
59941,1653,1512,1513,53
59960,1689,1576,1562,53
59979,1726,1624,1631,57
59998,1756,1671,1677,56
60017,1803,1721,1720,56
60036,1805,1757,1737,56
60055,1789,1774,1755,57
60074,1787,1791,1779,59
60093,1783,1811,1797,57
60112,1787,1827,1773,57
60131,1786,1832,1769,57
60150,1815,1828,1773,57
60169,1817,1831,1769,57
60188,1812,1815,1749,59
60207,1811,1781,1715,56
60226,1815,1759,1703,51
60245,1804,1750,1699,57
60264,1816,1752,1693,55
60283,1831,1753,1689,56
60302,1817,1751,1687,59
60321,1823,1759,1691,53
60340,1805,1763,1675,56
60359,1817,1831,1757,62
60378,1901,2077,1963,63
60397,2145,2506,2380,83
60416,2531,3067,2927,100
60435,2931,3689,3533,108
60454,3177,4087,3965,124
60473,3228,4011,4059,123
60492,3067,3594,3743,115
60511,2808,3079,3251,101
60530,2507,2565,2776,87
60549,2221,2123,2323,71
60568,1991,1766,1976,63
60587,1800,1530,1711,54
60606,1675,1387,1543,53
60625,1620,1321,1464,47
60644,1611,1337,1461,48
60663,1651,1459,1541,57
60682,1737,1643,1663,56
60701,1843,1853,1845,63
60779,2261,2366,2391,99
60799,2245,2255,2315,77
60818,2083,2014,2117,73
60837,1911,1781,1897,59
60856,1786,1612,1720,57
60875,1700,1486,1591,54
60894,1646,1421,1511,53
60913,1639,1420,1469,52
60932,1669,1463,1469,51
60951,1689,1503,1494,52
60970,1715,1544,1530,54
60989,1716,1588,1577,55
61008,1716,1647,1605,53
61027,1741,1691,1659,55
61046,1767,1741,1699,57
61065,1799,1775,1747,57
61084,1801,1801,1767,59
61103,1791,1801,1763,57
61122,1773,1782,1769,57
61141,1779,1775,1765,59
61160,1772,1757,1728,55
61179,1789,1769,1733,57
61198,1810,1787,1719,57
61217,1823,1775,1717,59
61236,1839,1779,1705,59
61255,1830,1787,1705,56
61274,1818,1739,1689,59
61293,1813,1754,1685,54
61312,1816,1751,1685,57
61331,1821,1762,1699,55
61350,1833,1769,1679,55
61369,1831,1769,1695,55
61388,1831,1789,1725,55
61407,1854,1939,1847,61
61426,1997,2279,2172,69
61445,2345,2777,2717,89
61464,2773,3419,3358,108
61483,3143,4077,4043,133
61502,3353,4095,4095,133
61521,3295,3945,4095,125
61540,3055,3463,3724,112
61559,2736,2919,3191,95
61578,2407,2423,2699,81
61597,2121,2003,2281,73
61616,1919,1694,1963,60
61635,1777,1503,1739,60
61654,1702,1429,1629,48
61673,1661,1397,1573,55
61692,1653,1443,1583,53
61711,1688,1555,1653,58
61789,2199,2324,2330,94
61809,2214,2331,2387,77
61828,2135,2197,2275,75
61847,2041,2045,2135,69
61866,1951,1903,1983,62
61885,1861,1737,1827,59
61904,1771,1624,1701,52
61923,1715,1527,1605,54
61942,1701,1493,1528,52
61961,1679,1465,1497,51
61980,1694,1491,1467,53
61999,1720,1542,1501,53
62018,1737,1595,1533,47
62037,1741,1631,1564,52
62056,1725,1659,1619,53
62075,1735,1693,1630,52
62094,1723,1710,1675,57
62113,1753,1738,1691,58
62132,1775,1759,1736,55
62151,1791,1766,1752,63
62170,1805,1763,1753,57
62189,1803,1749,1749,56
62208,1801,1741,1741,59
62227,1799,1736,1734,57
62246,1815,1756,1723,57
62265,1817,1763,1709,55
62284,1822,1747,1715,59
62303,1829,1756,1678,56
62322,1804,1743,1677,55
62341,1798,1747,1657,56
62360,1798,1739,1660,55
62379,1823,1749,1686,56
62398,1837,1765,1671,55
62417,1851,1773,1671,55
62436,1865,1811,1699,57
62455,1879,1959,1849,59
62474,2025,2318,2228,72
62493,2375,2837,2799,92
62512,2812,3453,3517,115
62531,3165,4019,4095,135
62550,3319,4095,4095,133
62569,3230,3827,4095,127
62588,2962,3299,3667,107
62607,2636,2765,3087,92
62626,2313,2278,2599,74
62645,2037,1887,2170,71
62664,1875,1611,1847,59
62683,1750,1456,1646,55
62702,1700,1389,1549,52
62721,1659,1369,1489,51
62799,2005,2076,2101,89
62819,2121,2246,2271,78
62838,2104,2249,2298,75
62857,2079,2196,2268,71
62876,2027,2101,2204,70
62895,1981,1993,2089,68
62914,1950,1867,1948,62
62933,1885,1737,1817,55
62952,1835,1624,1688,55
62971,1769,1548,1583,53
62990,1717,1497,1513,53
63009,1693,1482,1459,50
63028,1691,1490,1459,51
63047,1719,1547,1487,51
63066,1734,1589,1541,51
63085,1762,1636,1567,53
63104,1763,1669,1599,54
63123,1769,1709,1647,58
63142,1781,1726,1677,53
63161,1797,1763,1727,58
63180,1811,1783,1762,60
63199,1820,1814,1791,59
63218,1813,1819,1789,59
63237,1806,1817,1787,55
63256,1797,1791,1751,55
63275,1787,1775,1737,57
63294,1801,1783,1737,57
63313,1818,1765,1727,57
63332,1831,1765,1703,57
63351,1833,1769,1703,51
63370,1828,1759,1703,57
63389,1817,1752,1692,57
63408,1815,1751,1672,57
63427,1823,1757,1663,55
63446,1840,1797,1709,57
63465,1886,1957,1873,62
63484,2039,2324,2247,78
63503,2335,2812,2804,93
63522,2718,3351,3417,109
63541,3019,3811,3979,127
63560,3163,3896,4095,135
63579,3101,3619,3919,121
63598,2885,3160,3419,107
63617,2581,2663,2903,88
63636,2281,2185,2422,75
63655,2002,1800,2009,61
63674,1790,1518,1691,55
63693,1659,1357,1479,51
63712,1621,1289,1357,51
63731,1622,1297,1349,51
63809,1997,2107,2094,88
63829,2131,2296,2311,81
63848,2136,2313,2361,75
63867,2117,2254,2325,77
63886,2067,2123,2206,73
63905,1979,1964,2071,63
63924,1907,1807,1915,60
63943,1835,1669,1749,59
63962,1785,1579,1618,53
63981,1739,1519,1527,51
64000,1725,1515,1477,53
64019,1711,1523,1449,51
64038,1705,1545,1439,51
64057,1705,1581,1465,53
64076,1724,1624,1523,53
64095,1754,1659,1574,56
64114,1783,1721,1625,55
64133,1798,1758,1689,59
64152,1801,1775,1717,58
64171,1803,1786,1735,57
64190,1797,1781,1759,59
64209,1807,1773,1749,59
64228,1817,1779,1739,57
64247,1833,1791,1757,57
64266,1847,1789,1765,58
64285,1837,1788,1749,59
64304,1833,1804,1733,56
64323,1823,1773,1722,58
64342,1833,1775,1695,53
64361,1831,1775,1701,56
64380,1831,1778,1685,57
64399,1843,1790,1686,56
64418,1862,1827,1715,55
64437,1881,1963,1827,60
64456,2014,2321,2223,73
64475,2344,2872,2813,91
64494,2795,3514,3535,115
64513,3159,4095,4095,135
64532,3353,4095,4095,133
64551,3315,4095,4095,137
64570,3053,3528,3893,117
64589,2723,2957,3243,99
64608,2387,2429,2711,79
64627,2091,1983,2237,68
64646,1897,1670,1891,58
64665,1767,1485,1648,53
64684,1701,1402,1523,44
64703,1675,1395,1479,51
64722,1657,1437,1495,53
64741,1679,1543,1567,53
64819,2215,2329,2361,99
64839,2238,2327,2392,79
64858,2131,2187,2264,72
64877,2011,1991,2095,63
64896,1941,1837,1926,59
64915,1847,1698,1755,57
64934,1773,1595,1612,47
64953,1747,1511,1501,51
64972,1701,1479,1438,48
64991,1681,1463,1406,47
65010,1701,1481,1429,51
65029,1704,1529,1445,51
65048,1749,1588,1497,55
65067,1755,1626,1551,57
65086,1766,1673,1596,55
65105,1759,1699,1624,55
65124,1775,1723,1675,55
65143,1771,1748,1702,56
65162,1811,1779,1737,57
65181,1833,1798,1753,57
65200,1824,1818,1755,61
65219,1813,1803,1757,57
65238,1789,1788,1757,57
65257,1783,1767,1737,56
65276,1791,1755,1721,57
65295,1817,1757,1715,58
65314,1829,1757,1701,57
65333,1849,1767,1707,57
65352,1852,1769,1689,57
65371,1837,1755,1674,55
65390,1837,1755,1664,55
65409,1839,1831,1734,59
65428,1893,2063,1993,69
65447,2126,2540,2487,85
65466,2527,3149,3135,103
65485,2935,3811,3899,127
65504,3211,4095,4095,133
65523,3256,4095,4095,132
65542,3111,3647,4039,125
65561,2835,3100,3420,107
65580,2507,2595,2859,87
65599,2216,2155,2381,72
65618,1979,1791,1978,61
65637,1815,1553,1701,55
65656,1700,1403,1505,47
65675,1656,1366,1421,44
65694,1669,1398,1398,45
65713,1703,1515,1481,55
65732,1783,1703,1641,57
65751,1891,1919,1868,61
65829,2325,2415,2427,99
65849,2271,2275,2323,75
65868,2087,2021,2109,69
65887,1895,1783,1869,56
65906,1759,1599,1663,53
65925,1663,1478,1516,48
65944,1639,1417,1425,47
65963,1634,1398,1383,51
65982,1653,1449,1407,47
66001,1694,1507,1447,52
66020,1705,1559,1483,53
66039,1725,1611,1531,53
66058,1754,1679,1597,55
66077,1769,1749,1663,55
66096,1803,1805,1716,56
66115,1831,1849,1762,55
66134,1822,1853,1775,61
66153,1819,1876,1786,57
66172,1811,1863,1777,57
66191,1813,1847,1773,56
66210,1817,1837,1753,59
66229,1821,1837,1727,57
66248,1827,1827,1703,54
66267,1820,1815,1695,47
66286,1817,1792,1687,57
66305,1813,1774,1685,55
66324,1811,1806,1754,57
66343,1879,2026,1978,69
66362,2093,2473,2452,82
66381,2527,3108,3112,101
66400,2987,3832,3829,127
66419,3342,4095,4095,136
66438,3429,4095,4095,127
66457,3285,3951,4095,124
66476,2968,3363,3463,104
66495,2644,2797,2899,85
66514,2341,2325,2380,72
66533,2085,1935,1980,61
66552,1877,1659,1689,53
66571,1743,1463,1502,50
66590,1660,1374,1419,45
66609,1641,1368,1414,45
66628,1677,1459,1485,54
66647,1753,1615,1640,55
66666,1876,1822,1835,61
66685,1991,2030,2029,69
66704,2087,2187,2188,75
66723,2138,2247,2267,73
66742,2157,2227,2251,71
66761,2135,2135,2159,70
66840,1870,1663,1683,72
66860,1807,1561,1562,53
66879,1708,1443,1429,51
66898,1655,1407,1381,47
66917,1640,1407,1351,47
66936,1629,1461,1368,51
66955,1625,1527,1405,47
66974,1663,1606,1487,47
66993,1711,1689,1557,55
67012,1756,1739,1637,55
67031,1787,1799,1717,57
67050,1805,1810,1751,61
67069,1807,1816,1768,57
67088,1804,1805,1775,57
67107,1807,1781,1767,57
67126,1811,1767,1747,55
67145,1830,1782,1720,62
67164,1844,1769,1701,57
67183,1849,1756,1673,57
67202,1863,1741,1637,55
67221,1832,1747,1619,56
67240,1821,1737,1615,55
67259,1817,1742,1615,53
67278,1839,1755,1636,53
67297,1890,1916,1834,63
67316,2022,2347,2295,76
67335,2374,2995,2975,105
67354,2827,3747,3868,124
67373,3231,4095,4095,133
67392,3432,4095,4095,127
67411,3381,4095,4095,127
67430,3127,3850,4095,127
67449,2787,3160,3589,107
67468,2442,2583,2907,87
67487,2139,2101,2365,72
67506,1915,1749,1975,61
67525,1788,1530,1687,53
67544,1737,1435,1519,51
67563,1725,1415,1448,49
67582,1755,1461,1467,53
67601,1811,1589,1557,57
67620,1869,1769,1719,59
67639,1973,1980,1909,61
67658,2086,2173,2093,72
67677,2173,2293,2223,75
67696,2219,2322,2287,73
67715,2191,2254,2271,73
67734,2115,2089,2147,69
67753,2007,1912,1996,61
67772,1898,1723,1821,57
67851,1775,1403,1449,69
67871,1752,1337,1392,52
67890,1659,1295,1321,46
67909,1621,1315,1325,45
67928,1615,1413,1371,53
67947,1641,1513,1436,53
67966,1693,1635,1533,61
67985,1739,1709,1624,55
68004,1755,1768,1688,56
68023,1763,1810,1753,57
68042,1787,1843,1782,57
68061,1807,1897,1783,60
68080,1837,1915,1814,59
68099,1847,1932,1789,59
68118,1846,1916,1752,56
68137,1833,1901,1717,56
68156,1805,1876,1699,54
68175,1801,1829,1662,53
68194,1798,1815,1643,56
68213,1832,1804,1643,54
68232,1852,1790,1681,55
68251,1899,1886,1868,63
68270,2005,2220,2297,76
68289,2316,2799,2949,99
68308,2759,3493,3772,124
68327,3173,4095,4095,127
68346,3445,4095,4095,127
68365,3426,4095,4095,127
68384,3165,3687,4095,125
68403,2800,3044,3515,107
68422,2440,2473,2840,87
68441,2140,2008,2277,68
68460,1929,1689,1850,57
68479,1781,1507,1578,51
68498,1715,1403,1404,48
68517,1692,1401,1351,45
68536,1695,1462,1373,51
68555,1740,1621,1519,54
68574,1839,1843,1737,58
68593,1968,2068,1974,62
68612,2111,2263,2200,72
68631,2231,2358,2329,74
68650,2267,2358,2363,83
68669,2230,2255,2293,75
68688,2131,2083,2131,69
68707,2005,1877,1943,61
68726,1885,1695,1736,55
68745,1807,1545,1574,47
68764,1741,1431,1455,53
68783,1704,1368,1363,53
68862,1817,1619,1542,74
68882,1843,1705,1621,55
68901,1771,1696,1591,55
68920,1704,1695,1579,53
68939,1659,1693,1596,55
68958,1653,1705,1624,55
68977,1693,1708,1644,59
68996,1741,1709,1656,55
69015,1773,1725,1678,57
69034,1811,1723,1689,59
69053,1813,1710,1678,56
69072,1827,1701,1658,55
69091,1817,1685,1629,51
69110,1827,1683,1639,53
69129,1835,1685,1619,55
69148,1830,1687,1620,54
69167,1830,1705,1607,54
69186,1812,1687,1589,52
69205,1805,1685,1565,53
69224,1811,1701,1597,51
69243,1847,1869,1785,61
69262,2011,2323,2248,76
69281,2415,3043,2975,103
69300,2969,4077,3945,133
69319,3483,4095,4095,134
69338,3819,4095,4095,127
69357,3797,4095,4095,133
69376,3487,4095,4095,125
69395,3039,4095,3894,121
69414,2617,3205,3123,92
69433,2252,2556,2519,69
69452,1991,2085,2039,60
69471,1823,1735,1706,55
69490,1753,1544,1531,53
69509,1741,1447,1436,47
69528,1755,1437,1443,47
69547,1812,1518,1512,53
69566,1893,1683,1677,59
69585,1983,1855,1843,60
69604,2069,2035,2005,63
69623,2139,2167,2131,71
69642,2187,2221,2187,73
69661,2170,2191,2152,73
69680,2123,2094,2060,69
69699,2031,1947,1895,63
69718,1928,1764,1743,58
69737,1817,1592,1597,52
69756,1746,1477,1465,47
69775,1679,1401,1388,51
69794,1675,1378,1358,47
69873,1810,1622,1583,75
69893,1807,1651,1645,56
69912,1753,1637,1615,55
69931,1699,1629,1598,55
69950,1683,1626,1612,53
69969,1687,1627,1625,53
69988,1705,1637,1643,55
70007,1717,1653,1661,57
70026,1748,1657,1657,56
70045,1787,1688,1673,57
70064,1816,1703,1663,55
70083,1838,1707,1653,58
70102,1834,1692,1629,53
70121,1821,1677,1597,55
70140,1815,1682,1583,54
70159,1799,1683,1580,55
70178,1805,1695,1565,54
70197,1817,1715,1575,56
70216,1832,1718,1581,57
70235,1829,1737,1613,53
70254,1831,1816,1705,59
70273,1915,2135,2063,69
70292,2213,2761,2700,87
70311,2761,3671,3608,120
70330,3340,4095,4095,134
70349,3815,4095,4095,127
70368,3898,4095,4095,128
70387,3629,4095,4095,128
70406,3171,4095,4095,127
70425,2709,3526,3339,99
70444,2296,2733,2663,79
70463,1999,2141,2103,61
70482,1817,1739,1717,53
70501,1683,1455,1461,48
70520,1644,1304,1337,43
70539,1645,1269,1318,47
70558,1685,1341,1384,47
70577,1763,1529,1527,53
70596,1903,1759,1756,59
70615,2041,2021,1973,69
70634,2153,2204,2167,72
70653,2218,2292,2253,72
70672,2206,2285,2253,71
70691,2153,2165,2163,71
70710,2068,2009,2004,71
70729,1957,1822,1835,61
70748,1865,1659,1659,53
70767,1775,1517,1512,52
70786,1695,1433,1402,45
70805,1662,1371,1336,47
70888,1787,1599,1577,71
70907,1818,1638,1619,52
70926,1751,1617,1605,51
70945,1709,1605,1591,53
70964,1691,1623,1607,53
70983,1709,1645,1625,54
71002,1706,1670,1635,55
71021,1719,1687,1645,53
71040,1743,1689,1657,54
71059,1753,1691,1661,56
71078,1785,1707,1675,55
71097,1800,1703,1669,53
71116,1823,1718,1659,55
71135,1819,1695,1637,56
71154,1811,1675,1607,55
71173,1803,1663,1579,53
71192,1801,1669,1565,53
71211,1815,1674,1571,51
71230,1836,1688,1571,53
71249,1843,1771,1657,59
71268,1901,2065,1983,71
71287,2139,2613,2542,87
71306,2597,3349,3315,110
71325,3094,4095,4095,136
71344,3471,4095,4095,127
71363,3571,4095,4095,127
71382,3380,4095,4095,135
71401,3017,3573,3564,107
71420,2581,2839,2872,87
71439,2213,2216,2283,69
71458,1915,1719,1817,55
71477,1725,1380,1469,47
71496,1595,1183,1256,47
71515,1554,1111,1145,43
71534,1525,1149,1167,43
71553,1568,1277,1303,45
71572,1669,1523,1529,55
71591,1803,1801,1829,59
71610,1981,2101,2108,73
71629,2147,2316,2311,76
71648,2235,2399,2409,79
71667,2258,2361,2373,75
71686,2185,2205,2215,71
71705,2063,1991,2017,61
71724,1930,1770,1809,53
71743,1828,1596,1597,54
71762,1759,1460,1450,43
71781,1709,1377,1358,47
71800,1679,1337,1304,47
71819,1645,1337,1295,46
71899,1853,1733,1619,79
71919,1851,1749,1661,59
71938,1771,1705,1645,54
71957,1710,1672,1636,47
71976,1695,1655,1643,55
71995,1717,1675,1653,55
72014,1753,1689,1659,56
72033,1775,1693,1684,55
72052,1785,1713,1695,55
72071,1781,1703,1685,55
72090,1791,1705,1661,50
72109,1801,1711,1661,57
72128,1827,1727,1656,54
72147,1847,1727,1635,59
72166,1845,1718,1639,57
72185,1833,1710,1619,52
72204,1831,1725,1643,55
72223,1869,1909,1869,61
72242,2068,2389,2363,79
72261,2533,3150,3144,105
72280,3118,4095,4095,136
72299,3685,4095,4095,124
72318,3980,4095,4095,124
72337,3869,4095,4095,136
72356,3455,4095,4095,127
72375,2968,3930,3885,118
72394,2523,3039,3058,90
72413,2163,2398,2431,71
72432,1899,1915,1959,61
72451,1736,1571,1621,51
72470,1637,1396,1433,45
72489,1625,1338,1370,47
72508,1639,1379,1372,51
72527,1707,1512,1469,53
72546,1811,1701,1643,57
72565,1941,1913,1847,63
72584,2065,2119,2055,67
72603,2159,2238,2190,72
72622,2212,2271,2261,73
72641,2203,2212,2221,71
72660,2140,2093,2111,72
72679,2055,1926,1972,61
72698,1943,1751,1805,57
72717,1843,1590,1653,55
72736,1741,1471,1493,50
72755,1691,1380,1391,51
72774,1658,1351,1327,47
72793,1650,1371,1317,47
72812,1669,1418,1317,47
72831,1682,1479,1363,47
72910,1864,1802,1724,77
72930,1884,1819,1755,59
72949,1799,1764,1721,62
72968,1717,1693,1689,55
72987,1669,1647,1671,56
73006,1657,1622,1654,53
73025,1671,1628,1646,55
73044,1721,1641,1651,53
73063,1779,1663,1639,55
73082,1797,1689,1626,59
73101,1812,1689,1620,55
73120,1803,1695,1599,53
73139,1801,1692,1575,52
73158,1811,1693,1566,50
73177,1816,1748,1620,55
73196,1879,1949,1843,63
73215,2069,2409,2363,83
73234,2488,3095,3139,107
73253,3005,3991,4095,133
73272,3496,4095,4095,135
73291,3787,4095,4095,127
73310,3719,4095,4095,126
73329,3355,4095,4095,127
73348,2893,3279,3643,115
73367,2457,2615,2867,87
73386,2085,2053,2263,68
73405,1817,1634,1811,55
73424,1659,1370,1506,51
73443,1611,1243,1341,45
73462,1599,1233,1272,47
73481,1635,1279,1307,45
73500,1701,1407,1429,48
73519,1782,1591,1607,53
73538,1892,1789,1823,59
73557,2007,1992,2038,69
73576,2105,2149,2190,74
73595,2159,2200,2249,74
73614,2155,2158,2214,73
73633,2101,2043,2104,69
73652,1993,1887,1933,60
73671,1891,1716,1740,53
73690,1799,1587,1591,47
73709,1739,1469,1445,51
73728,1705,1429,1357,51
73747,1687,1397,1308,45
73766,1672,1404,1305,47
73785,1673,1419,1317,47
73804,1660,1464,1353,47
73823,1669,1501,1401,44
73842,1693,1566,1465,52
73921,1902,1799,1789,77
73941,1892,1758,1780,59
73960,1816,1686,1702,57
73979,1781,1621,1579,54
73998,1751,1583,1496,55
74017,1746,1528,1443,51
74036,1741,1464,1402,51
74055,1759,1416,1415,47
74074,1779,1369,1446,51
74093,1813,1325,1499,53
74112,1839,1309,1546,52
74131,1865,1302,1621,56
74150,1885,1358,1771,59
74169,1949,1633,2089,71
74188,2152,2099,2641,89
74207,2537,2683,3365,110
74226,2939,3227,4095,137
74245,3227,3576,4095,133
74264,3285,3577,4095,127
74283,3103,3244,4095,133
74302,2773,2748,3485,106
74321,2421,2262,2835,84
74340,2076,1833,2287,70
74359,1823,1493,1864,58
74378,1654,1297,1583,52
74397,1557,1177,1405,48
74416,1517,1170,1341,45
74435,1514,1222,1343,47
74454,1555,1378,1449,51
74473,1636,1591,1629,55
74492,1787,1829,1881,61
74511,1947,2069,2133,73
74530,2091,2216,2300,77
74549,2169,2253,2387,77
74568,2171,2198,2361,74
74587,2111,2067,2213,71
74606,2017,1906,2011,63
74625,1926,1737,1805,57
74644,1838,1604,1607,55
74663,1802,1496,1452,51
74682,1766,1460,1351,53
74701,1735,1446,1311,46
74720,1701,1460,1307,47
74739,1701,1479,1355,53
74758,1705,1527,1414,47
74777,1749,1575,1479,51
74796,1769,1637,1561,53
74815,1797,1659,1636,59
74834,1801,1709,1701,57
74853,1787,1719,1742,59
74932,1979,1906,1899,83
74952,1941,1868,1854,61
74971,1849,1759,1747,55
74990,1779,1671,1643,52
75009,1749,1647,1599,57
75028,1757,1690,1662,56
75047,1848,1885,1933,69
75066,2076,2264,2491,85
75085,2483,2767,3254,107
75104,2963,3263,4095,135
75123,3324,3609,4095,125
75142,3501,3674,4095,133
75161,3401,3419,4095,126
75180,3066,3019,4095,125
75199,2693,2571,3367,101
75218,2312,2153,2747,80
75237,2005,1837,2219,71
75256,1785,1625,1879,52
75275,1679,1523,1597,51
75294,1634,1484,1464,50
75313,1628,1507,1425,47
75332,1661,1579,1471,55
75351,1724,1683,1624,53
75370,1835,1819,1831,60
75389,1967,1964,2031,67
75408,2109,2084,2222,72
75427,2207,2136,2330,75
75446,2223,2137,2345,76
75465,2187,2073,2253,64
75484,2087,1981,2085,68
75503,1959,1855,1899,60
75522,1831,1740,1721,55
75541,1748,1663,1564,52
75560,1695,1603,1423,47
75579,1671,1575,1336,46
75598,1679,1557,1341,47
75617,1687,1579,1367,47
75636,1688,1587,1377,45
75655,1702,1610,1451,52
75674,1716,1647,1514,53
75693,1747,1707,1581,55
75712,1771,1755,1660,55
75731,1789,1787,1705,61
75750,1779,1791,1736,59
75769,1775,1781,1773,57
75788,1771,1775,1757,57
75807,1787,1779,1757,55
75826,1806,1771,1734,59
75845,1828,1775,1711,57
75864,1843,1770,1687,57
75943,1976,1963,1917,83
75963,2155,2232,2419,85
75982,2457,2575,3081,107
76001,2903,2969,3948,126
76020,3357,3335,4095,128
76039,3659,3515,4095,127
76058,3677,3421,4095,125
76077,3425,3139,4095,127
76096,3019,2775,4095,133
76115,2628,2405,3272,89
76134,2281,2095,2664,77
76153,2027,1871,2201,63
76172,1881,1733,1852,57
76191,1774,1657,1628,53
76210,1750,1641,1493,50
76229,1765,1671,1469,53
76248,1802,1715,1515,56
76267,1879,1807,1674,55
76286,1973,1900,1867,63
76305,2068,1996,2059,69
76324,2131,2071,2187,73
76343,2205,2093,2232,72
76362,2195,2085,2197,71
76381,2135,2012,2072,71
76400,2011,1919,1918,57
76419,1891,1811,1739,56
76438,1813,1712,1576,51
76457,1704,1651,1459,47
76476,1671,1609,1366,47
76495,1660,1598,1323,50
76514,1675,1597,1338,51
76533,1655,1608,1363,47
76552,1651,1620,1416,53
76571,1663,1637,1452,52
76590,1688,1657,1516,51
76609,1709,1694,1595,54
76628,1753,1743,1641,56
76647,1790,1774,1687,56
76666,1791,1800,1707,57
76685,1797,1785,1705,54
76704,1789,1784,1709,57
76723,1801,1767,1675,55
76742,1799,1772,1660,57
76761,1791,1751,1639,53
76780,1799,1749,1627,56
76799,1792,1719,1671,57
76818,1783,1685,1711,57
76837,1771,1689,1800,59
76856,1849,1804,2029,63
76875,2104,2103,2489,81
76954,4077,3641,4095,159
76974,3849,3389,4095,134
76993,3290,2949,4028,121
77012,2780,2509,3148,97
77031,2316,2147,2518,78
77050,1963,1879,2003,60
77069,1751,1693,1651,51
77088,1625,1584,1431,45
77107,1572,1549,1300,46
77126,1607,1581,1288,47
77145,1675,1651,1383,51
77164,1781,1764,1566,53
77183,1941,1898,1799,60
77202,2072,2021,2013,70
77221,2187,2124,2162,70
77240,2258,2151,2238,71
77259,2271,2149,2205,75
77278,2183,2087,2109,68
77297,2060,1987,1949,60
77316,1937,1881,1763,57
77335,1785,1775,1581,51
77354,1683,1701,1433,51
77373,1615,1628,1339,44
77392,1593,1611,1305,46
77411,1596,1635,1311,47
77430,1621,1655,1333,49
77449,1643,1691,1395,51
77468,1671,1704,1471,51
77487,1700,1724,1547,51
77506,1725,1764,1593,55
77525,1757,1785,1643,55
77544,1791,1831,1685,55
77563,1813,1844,1702,57
77582,1819,1847,1709,57
77601,1807,1828,1699,55
77620,1791,1817,1677,55
77639,1781,1797,1625,51
77658,1797,1759,1606,53
77677,1785,1755,1574,56
77696,1787,1765,1555,53
77715,1785,1779,1589,58
77734,1835,1877,1753,57
77753,2067,2107,2184,75
77772,2501,2511,2850,92
77791,3087,2968,3691,123
77810,3668,3384,4095,127
77829,4040,3571,4095,134
77848,3947,3450,4095,121
77867,3511,3131,4095,125
77886,2979,2734,3387,105
77965,1768,1791,1589,68
77985,1653,1691,1394,50
78004,1542,1597,1271,44
78023,1524,1587,1267,46
78042,1615,1663,1405,53
78061,1785,1805,1643,59
78080,1971,1950,1896,67
78099,2137,2087,2105,73
78118,2227,2152,2205,73
78137,2227,2139,2214,73
78156,2163,2074,2119,63
78175,2042,1996,1958,61
78194,1915,1902,1757,56
78213,1791,1807,1581,53
78232,1693,1725,1419,50
78251,1625,1676,1312,44
78270,1560,1637,1284,46
78289,1545,1622,1275,41
78308,1557,1615,1307,47
78327,1592,1657,1368,52
78346,1639,1704,1443,51
78365,1685,1747,1497,53
78384,1707,1774,1559,50
78403,1725,1797,1621,54
78422,1752,1802,1653,55
78441,1767,1811,1685,56
78460,1785,1807,1685,55
78479,1789,1811,1683,58
78498,1797,1819,1675,50
78517,1773,1790,1658,53
78536,1753,1784,1619,51
78555,1743,1771,1598,53
78574,1728,1763,1575,53
78593,1749,1771,1560,53
78612,1759,1771,1557,53
78631,1781,1771,1531,52
78650,1785,1764,1531,53
78669,1790,1787,1597,55
78688,1892,1931,1835,61
78707,2247,2263,2381,83
78726,2835,2743,3199,110
78745,3534,3261,4095,137
78764,4095,3687,4095,135
78783,4095,3817,4095,127
78802,4095,3567,4095,127
78821,3657,3175,4095,127
78840,3045,2772,3742,115
78859,2541,2377,2982,89
78878,2155,2095,2424,73
78897,1915,1932,2027,59
78976,1828,1911,1597,71
78996,1912,1999,1673,56
79015,1910,1989,1711,56
79034,1961,2011,1803,56
79053,2009,2057,1907,61
79072,2072,2092,1992,63
79091,2079,2072,2007,63
79110,2027,2032,1965,61
79129,1963,1960,1891,59
79148,1851,1891,1757,53
79167,1739,1783,1637,53
79186,1641,1710,1507,51
79205,1584,1658,1419,47
79224,1563,1623,1365,45
79243,1555,1636,1341,45
79262,1565,1629,1343,47
79281,1605,1645,1379,53
79300,1626,1661,1414,47
79319,1635,1708,1450,52
79338,1657,1719,1479,48
79357,1683,1737,1530,53
79376,1715,1765,1571,55
79395,1765,1769,1591,55
79414,1782,1769,1619,57
79433,1775,1773,1625,55
79452,1759,1741,1624,55
79471,1743,1749,1624,55
79490,1727,1735,1605,53
79509,1737,1733,1593,47
79528,1751,1739,1583,55
79547,1748,1733,1574,53
79566,1749,1741,1557,55
79585,1716,1715,1541,50
79604,1715,1715,1511,53
79623,1705,1703,1497,52
79642,1719,1735,1507,55
79661,1752,1784,1567,56
79680,1852,1912,1787,59
79699,2183,2171,2259,78
79718,2701,2541,2968,95
79737,3315,2939,3781,122
79756,3899,3245,4095,133
79775,4095,3350,4095,128
79794,3891,3207,4095,125
79813,3373,2906,3965,119
79832,2835,2549,3190,95
79851,2346,2205,2596,75
79870,1957,1951,2099,61
79889,1693,1783,1735,51
79908,1546,1689,1527,48
79987,1811,1892,1691,77
80007,1973,1971,1896,62
80026,2073,2009,2031,67
80045,2147,2044,2136,72
80064,2187,2072,2185,71
80083,2154,2044,2142,71
80102,2059,1997,2045,62
80121,1939,1916,1882,61
80140,1811,1839,1719,55
80159,1705,1771,1583,54
80178,1629,1734,1455,48
80197,1575,1685,1396,47
80216,1545,1653,1343,47
80235,1509,1639,1336,47
80254,1517,1643,1366,51
80273,1547,1655,1394,51
80292,1612,1691,1451,55
80311,1671,1737,1523,57
80330,1717,1785,1580,54
80349,1752,1805,1623,57
80368,1771,1807,1659,55
80387,1756,1809,1674,55
80406,1751,1813,1672,53
80425,1758,1808,1657,59
80444,1764,1801,1663,55
80463,1763,1803,1648,57
80482,1759,1803,1637,55
80501,1747,1780,1613,54
80520,1725,1775,1593,53
80539,1715,1767,1581,53
80558,1718,1767,1567,53
80577,1747,1781,1578,54
80596,1749,1803,1575,55
80615,1769,1819,1589,52
80634,1811,1891,1705,56
80653,2031,2066,2065,69
80672,2495,2376,2653,88
80691,3099,2735,3373,109
80710,3667,3063,4095,135
80729,4013,3220,4095,127
80748,3860,3149,4095,135
80767,3382,2885,3785,114
80786,2847,2552,3151,99
80805,2355,2227,2581,77
80824,1957,1961,2103,60
80843,1711,1801,1768,56
80862,1565,1693,1553,53
80881,1499,1637,1431,57
80900,1482,1623,1389,51
80919,1501,1640,1429,52
80998,2213,2111,2206,93
81018,2283,2142,2287,75
81037,2213,2038,2222,72
81056,2085,1959,2095,68
81075,1946,1855,1929,61
81094,1805,1791,1767,58
81113,1687,1734,1627,55
81132,1595,1687,1486,51
81151,1533,1661,1405,49
81170,1503,1645,1351,50
81189,1507,1653,1356,45
81208,1529,1663,1370,47
81227,1583,1699,1413,47
81246,1624,1724,1471,53
81265,1655,1747,1527,53
81284,1681,1752,1563,53
81303,1689,1757,1614,55
81322,1699,1759,1652,53
81341,1719,1775,1675,54
81360,1743,1802,1690,56
81379,1769,1816,1688,55
81398,1781,1827,1675,63
81417,1767,1816,1661,56
81436,1751,1800,1645,56
81455,1741,1788,1635,57
81474,1741,1784,1613,52
81493,1759,1783,1621,56
81512,1769,1787,1615,55
81531,1769,1789,1607,58
81550,1768,1787,1605,55
81569,1765,1779,1579,53
81588,1755,1775,1582,52
81607,1769,1769,1573,53
81626,1805,1835,1660,54
81645,1951,1994,1937,69
81664,2351,2257,2459,85
81683,2909,2602,3150,105
81702,3485,2924,3927,125
81721,3899,3115,4095,127
81740,3901,3123,4095,132
81759,3559,2933,4095,128
81778,3047,2637,3638,115
81797,2542,2326,3007,91
81816,2106,2041,2485,74
81835,1770,1819,2056,57
81854,1579,1689,1775,56
81873,1495,1629,1609,51
81892,1498,1613,1543,51
81911,1547,1641,1501,52
81930,1620,1683,1547,53
82009,2207,2089,2217,93
82029,2265,2101,2295,73
82048,2165,1996,2207,73
82067,1997,1895,2057,63
82086,1831,1791,1884,57
82105,1701,1712,1724,55
82124,1600,1677,1597,51
82143,1583,1651,1487,53
82162,1525,1654,1423,51
82181,1515,1662,1391,51
82200,1525,1671,1381,47
82219,1549,1668,1382,51
82238,1567,1687,1407,51
82257,1613,1703,1462,51
82276,1647,1737,1519,51
82295,1687,1755,1573,55
82314,1691,1783,1625,55
82333,1708,1799,1661,56
82352,1721,1800,1663,55
82371,1722,1791,1683,57
82390,1747,1782,1684,53
82409,1757,1782,1688,55
82428,1785,1779,1687,55
82447,1783,1779,1661,59
82466,1780,1779,1645,56
82485,1771,1771,1641,56
82504,1756,1757,1629,57
82523,1749,1763,1609,53
82542,1769,1768,1617,57
82561,1785,1791,1624,57
82580,1779,1807,1609,55
82599,1804,1819,1608,55
82618,1791,1827,1631,53
82637,1812,1897,1736,59
82656,1992,2059,2032,70
82675,2420,2319,2583,89
82694,2963,2639,3217,106
82713,3428,2871,3862,124
82732,3669,2973,4095,127
82751,3494,2871,4009,122
82770,3126,2652,3526,109
82789,2671,2376,3025,89
82808,2229,2105,2527,77
82827,1854,1878,2093,62
82846,1608,1748,1753,55
82865,1459,1669,1531,47
82884,1403,1621,1417,44
82903,1400,1619,1374,47
82922,1455,1653,1407,44
82941,1555,1706,1523,53
83020,2312,1994,2381,97
83040,2339,1916,2419,77
83059,2196,1771,2293,73
83078,2008,1657,2121,64
83097,1831,1587,1911,61
83116,1691,1549,1727,53
83135,1579,1527,1589,55
83154,1541,1551,1478,51
83173,1497,1565,1421,51
83192,1543,1613,1397,51
83211,1593,1658,1405,51
83230,1641,1724,1431,53
83249,1677,1779,1480,53
83268,1694,1811,1517,54
83287,1717,1815,1589,53
83306,1737,1821,1641,51
83325,1754,1815,1693,57
83344,1781,1827,1747,57
83363,1781,1835,1757,59
83382,1789,1843,1767,58
83401,1773,1836,1754,57
83420,1779,1824,1752,59
83439,1779,1815,1749,55
83458,1769,1811,1721,57
83477,1801,1809,1695,57
83496,1803,1815,1687,56
83515,1807,1803,1663,55
83534,1804,1813,1623,51
83553,1782,1822,1628,51
83572,1811,1871,1717,55
83591,1983,2025,1973,67
83610,2403,2283,2474,85
83629,2924,2571,3091,104
83648,3391,2797,3685,125
83667,3660,2893,4055,123
83686,3550,2837,3913,124
83705,3197,2651,3495,108
83724,2762,2398,3000,89
83743,2323,2136,2488,73
83762,1957,1919,2055,60
83781,1683,1757,1721,47
83800,1500,1663,1469,50
83819,1416,1611,1336,45
83838,1408,1593,1276,45
83857,1467,1627,1319,46
83876,1580,1693,1444,53
83895,1725,1804,1625,55
83914,1908,1913,1847,61
83933,2074,2010,2073,69
83952,2193,2055,2249,73
84031,2095,2029,2141,89
84051,1927,1928,1927,61
84070,1706,1765,1683,53
84089,1573,1676,1501,47
84108,1503,1642,1369,45
84127,1501,1647,1325,51
84146,1542,1678,1304,47
84165,1581,1721,1319,47
84184,1625,1756,1357,45
84203,1659,1789,1403,51
84222,1688,1821,1463,46
84241,1723,1851,1513,51
84260,1766,1878,1578,57
84279,1789,1887,1614,57
84298,1787,1899,1659,57
84317,1803,1885,1677,56
84336,1788,1875,1691,57
84355,1807,1862,1687,55
84374,1817,1851,1687,57
84393,1813,1869,1684,57
84412,1818,1855,1679,55
84431,1822,1820,1678,47
84450,1815,1867,1651,52
84469,1805,1845,1629,55
84488,1833,1911,1727,58
84507,2088,2099,2013,69
84526,2588,2409,2534,87
84545,3180,2778,3164,105
84564,3771,3117,3756,124
84583,4095,3275,4084,134
84602,3965,3232,3948,121
84621,3519,3025,3491,105
84640,3005,2671,3015,93
84659,2536,2365,2541,78
84678,2153,2100,2155,69
84697,1874,1901,1866,63
84716,1716,1800,1691,55
84735,1645,1722,1605,55
84754,1644,1709,1567,52
84773,1679,1721,1577,55
84792,1739,1781,1657,55
84811,1875,1867,1774,59
84830,1999,1977,1927,60
84849,2132,2059,2072,69
84868,2208,2107,2165,73
84887,2229,2133,2202,71
84906,2191,2109,2148,67
84925,2117,2059,2055,69
84944,1997,1999,1919,61
84963,1867,1935,1790,59
85042,1716,1865,1605,71
85062,1717,1849,1595,53
85081,1658,1787,1541,45
85100,1592,1725,1501,47
85119,1576,1707,1515,51
85138,1589,1717,1543,52
85157,1624,1757,1596,55
85176,1672,1787,1661,55
85195,1723,1833,1719,55
85214,1772,1864,1750,57
85233,1801,1863,1749,56
85252,1798,1855,1761,57
85271,1805,1850,1753,56
85290,1797,1848,1721,55
85309,1799,1831,1706,56
85328,1788,1837,1705,57
85347,1777,1832,1685,59
85366,1785,1818,1656,55
85385,1767,1813,1643,53
85404,1782,1855,1689,56
85423,1944,1995,1914,61
85442,2318,2291,2351,81
85461,2837,2719,2939,95
85480,3363,3160,3577,117
85499,3763,3469,4057,127
85518,3827,3555,4079,123
85537,3528,3349,3723,115
85556,3108,2989,3231,99
85575,2674,2635,2773,83
85594,2316,2315,2351,75
85613,2039,2067,2037,67
85632,1870,1910,1835,56
85651,1767,1802,1699,53
85670,1719,1736,1640,52
85689,1705,1703,1621,53
85708,1743,1717,1639,55
85727,1821,1789,1707,57
85746,1926,1885,1807,59
85765,2023,1992,1947,63
85784,2091,2072,2059,63
85803,2131,2103,2119,71
85822,2133,2091,2107,61
85841,2089,2054,2063,61
85860,2031,1995,1959,61
85879,1933,1913,1844,58
85898,1831,1843,1721,53
85917,1743,1772,1630,54
85936,1662,1699,1547,53
85955,1619,1662,1507,53
85974,1599,1655,1484,53
86052,1813,1840,1704,73
86072,1822,1819,1735,55
86091,1765,1757,1695,57
86110,1720,1721,1677,58
86129,1701,1717,1661,55
86148,1715,1721,1661,56
86167,1721,1727,1677,55
86186,1737,1746,1677,56
86205,1753,1739,1677,53
86224,1759,1755,1693,57
86243,1785,1786,1695,59
86262,1797,1775,1692,57
86281,1798,1789,1687,52
86300,1782,1779,1657,55
86319,1763,1766,1640,57
86338,1759,1767,1653,55
86357,1815,1877,1759,57
86376,2021,2104,2071,71
86395,2395,2483,2571,85
86414,2800,2932,3153,109
86433,3131,3311,3655,117
86452,3262,3513,3887,122
86471,3182,3423,3752,115
86490,2936,3134,3319,101
86509,2643,2748,2887,88
86528,2341,2397,2441,77
86547,2085,2093,2088,68
86566,1891,1875,1805,57
86585,1755,1711,1627,51
86604,1686,1607,1515,52
86623,1653,1565,1487,53
86642,1675,1603,1547,55
86661,1763,1717,1643,55
86680,1884,1866,1816,59
86699,2004,2023,1992,69
86718,2094,2148,2157,71
86737,2133,2211,2235,71
86756,2121,2212,2237,69
86775,2087,2153,2156,70
86794,2015,2069,2059,67
86813,1944,1965,1917,61
86832,1845,1867,1764,56
86851,1765,1763,1625,55
86870,1699,1695,1547,48
86889,1657,1663,1479,51
86908,1644,1651,1469,47
86927,1645,1669,1485,52
86946,1675,1683,1507,53
86965,1705,1695,1576,53
86984,1735,1737,1621,53
87063,1962,1973,1911,83
87083,1943,1945,1893,64
87102,1837,1852,1797,57
87121,1755,1775,1716,57
87140,1709,1720,1648,52
87159,1705,1700,1622,53
87178,1734,1701,1609,53
87197,1739,1711,1597,56
87216,1765,1741,1613,55
87235,1812,1829,1705,59
87254,1981,2065,1995,63
87273,2331,2475,2477,83
87292,2740,2997,3077,99
87311,3114,3534,3613,117
87330,3327,3903,3949,123
87349,3309,3901,3891,124
87368,3061,3516,3497,108
87387,2735,3061,3039,93
87406,2408,2603,2595,77
87425,2134,2239,2195,70
87444,1949,1955,1909,59
87463,1835,1786,1707,57
87482,1766,1673,1604,53
87501,1727,1599,1555,53
87520,1727,1607,1531,54
87539,1767,1643,1609,55
87558,1853,1759,1723,58
87577,1964,1907,1883,61
87596,2072,2058,2045,69
87615,2137,2151,2157,72
87634,2148,2193,2195,70
87653,2106,2157,2136,69
87672,2025,2085,2029,62
87691,1945,1964,1892,60
87710,1877,1853,1747,57
87729,1811,1765,1653,55
87748,1747,1693,1531,53
87767,1695,1631,1492,51
87786,1671,1607,1453,50
87805,1663,1599,1462,51
87824,1685,1618,1501,53
87843,1717,1651,1544,54
87862,1738,1689,1582,55
87881,1769,1717,1636,53
87900,1774,1742,1656,57
87919,1764,1759,1682,54
87938,1755,1767,1702,56
87957,1800,1787,1695,57
87976,1801,1789,1712,56
87995,1814,1789,1723,57
88073,1911,1862,1791,76
88093,1913,1829,1768,59
88112,1815,1755,1676,57
88131,1724,1695,1615,53
88150,1684,1673,1565,55
88169,1691,1769,1669,57
88188,1917,2053,1960,67
88207,2345,2551,2501,83
88226,2839,3240,3177,107
88245,3271,4009,3851,124
88264,3502,4095,4095,140
88283,3455,4095,4095,133
88302,3209,3943,3743,116
88321,2858,3334,3251,95
88340,2535,2814,2745,87
88359,2253,2391,2335,73
88378,2073,2076,2023,61
88397,1957,1867,1852,63
88416,1885,1738,1753,58
88435,1847,1651,1714,55
88454,1818,1631,1692,58
88473,1824,1655,1711,55
88492,1891,1751,1791,59
88511,1961,1899,1907,63
88530,2072,2030,2020,69
88549,2125,2141,2088,70
88568,2120,2167,2136,71
88587,2121,2158,2099,69
88606,2053,2083,2009,63
88625,1973,1973,1908,61
88644,1885,1849,1786,57
88663,1821,1747,1681,55
88682,1763,1653,1597,55
88701,1703,1573,1541,53
88720,1654,1530,1497,52
88739,1645,1515,1479,47
88758,1642,1522,1493,53
88777,1683,1563,1502,51
88796,1695,1587,1560,55
88815,1708,1619,1596,55
88834,1746,1663,1623,55
88853,1749,1695,1653,55
88872,1758,1716,1705,56
88891,1768,1721,1734,58
88910,1779,1741,1735,58
88929,1806,1753,1722,56
88948,1785,1741,1705,57
88967,1769,1724,1690,55
88986,1762,1703,1676,55
89005,1754,1683,1663,55
89083,1907,1815,1755,75
89103,1861,1766,1739,57
89122,1772,1687,1635,55
89141,1709,1643,1587,53
89160,1721,1683,1609,56
89179,1839,1895,1811,63
89198,2167,2334,2259,76
89217,2600,2951,2867,93
89236,3007,3685,3547,117
89255,3307,4095,4078,125
89274,3371,4095,4095,136
89293,3228,4079,3827,117
89312,2909,3486,3343,100
89331,2577,2909,2837,85
89350,2221,2391,2397,71
89369,1972,2003,2057,63
89388,1815,1727,1807,57
89407,1737,1577,1677,53
89426,1717,1495,1599,51
89445,1752,1500,1583,53
89464,1789,1556,1637,59
89483,1849,1677,1749,57
89502,1911,1820,1893,59
89521,1997,1967,2055,69
89540,2063,2100,2184,72
89559,2124,2193,2229,73
89578,2133,2197,2227,72
89597,2092,2133,2155,73
89616,2013,2006,2031,63
89635,1912,1855,1902,59
89654,1823,1711,1754,55
89673,1748,1593,1611,54
89692,1693,1518,1557,47
89711,1659,1478,1497,53
89730,1643,1491,1483,52
89749,1655,1496,1476,55
89768,1644,1519,1493,51
89787,1662,1558,1525,53
89806,1701,1591,1571,55
89825,1738,1646,1619,55
89844,1765,1693,1661,55
89863,1789,1735,1702,59
89882,1797,1757,1750,57
89901,1790,1758,1765,59
89920,1781,1758,1753,58
89939,1773,1750,1758,55
89958,1785,1725,1751,58
89977,1804,1736,1737,57
89996,1791,1733,1707,59
90015,1791,1716,1687,53
90093,1904,1812,1743,78
90113,1913,1815,1735,61
90132,1831,1752,1689,56
90151,1817,1855,1771,59
90170,2012,2190,2093,71
90189,2397,2742,2619,85
90208,2811,3405,3205,108
90227,3132,4063,3743,121
90246,3257,4095,3947,123
90265,3135,3943,3757,117
90284,2852,3399,3321,105
90303,2523,2823,2841,86
90322,2206,2316,2405,72
90341,1959,1889,2019,60
90360,1789,1635,1739,54
90379,1687,1431,1571,53
90398,1621,1335,1469,51
90417,1597,1307,1438,51
90436,1619,1383,1465,53
90455,1701,1540,1607,53
90474,1829,1749,1805,57
90493,1981,1983,2007,69
90512,2106,2159,2187,73
90531,2165,2277,2293,69
90550,2167,2279,2309,75
90569,2105,2195,2227,71
90588,2008,2043,2089,63
90607,1883,1875,1916,61
90626,1797,1709,1780,56
90645,1720,1589,1639,53
90664,1691,1509,1541,58
90683,1647,1463,1471,51
90702,1629,1449,1437,51
90721,1631,1463,1432,49
90740,1657,1498,1469,52
90759,1694,1566,1519,52
90778,1733,1629,1561,54
90797,1749,1679,1621,58
90816,1756,1704,1663,57
90835,1751,1739,1691,53
90854,1746,1739,1709,56
90873,1765,1747,1719,53
90892,1781,1757,1737,59
90911,1804,1757,1725,58
90930,1810,1749,1724,55
90949,1800,1747,1727,57
90968,1783,1721,1710,59
90987,1780,1695,1709,57
91006,1769,1691,1688,54
91025,1768,1695,1695,59
91103,1913,1862,1763,75
91123,1908,1873,1783,56
91142,1901,1965,1849,61
91161,2117,2332,2200,73
91180,2509,2957,2745,90
91199,2955,3793,3389,111
91218,3283,4095,4010,133
91237,3402,4095,4095,127
91256,3273,4095,3995,121
91275,2987,3967,3519,106
91294,2639,3251,3015,91
91313,2312,2629,2567,77
91332,2052,2135,2169,67
91351,1849,1758,1892,59
91370,1738,1525,1715,53
91389,1693,1407,1639,53
91408,1707,1387,1607,53
91427,1735,1439,1641,55
91446,1789,1563,1703,58
91465,1861,1727,1819,61
91484,1957,1915,1962,63
91503,2044,2079,2104,69
91522,2111,2189,2204,69
91541,2139,2229,2239,75
91560,2117,2173,2215,73
91579,2056,2077,2135,69
91598,1961,1919,1991,69
91617,1849,1766,1835,58
91636,1752,1623,1703,56
91655,1694,1509,1595,55
91674,1669,1453,1525,51
91693,1677,1435,1495,53
91712,1676,1459,1477,53
91731,1685,1490,1495,47
91750,1685,1515,1508,53
91769,1675,1554,1545,52
91788,1704,1587,1583,55
91807,1712,1617,1627,55
91826,1740,1661,1670,55
91845,1756,1707,1703,55
91864,1765,1735,1723,57
91883,1757,1734,1742,57
91902,1757,1715,1748,57
91921,1751,1720,1759,57
91940,1751,1695,1735,57
91959,1768,1708,1735,59
91978,1783,1707,1722,55
91997,1775,1701,1691,59
92016,1771,1709,1683,56
92035,1765,1692,1658,57
92113,1945,1827,1785,77
92133,1943,1803,1773,61
92152,1847,1805,1766,55
92171,1891,2022,1947,67
92190,2205,2541,2389,83
92209,2679,3295,3037,102
92228,3124,4095,3705,121
92247,3411,4095,4095,137
92266,3428,4095,4095,127
92285,3171,4095,3811,115
92304,2827,3531,3287,99
92323,2459,2867,2788,83
92342,2149,2285,2349,72
92361,1915,1852,1981,61
92380,1767,1559,1747,57
92399,1693,1388,1607,52
92418,1653,1319,1515,51
92437,1653,1339,1523,53
92456,1682,1423,1559,53
92475,1757,1579,1691,57
92494,1886,1789,1835,57
92513,2003,1993,2027,69
92532,2091,2137,2181,71
92551,2126,2203,2249,73
92570,2119,2185,2251,72
92589,2063,2109,2215,68
92608,1982,1965,2073,69
92627,1903,1817,1916,61
92646,1817,1672,1775,57
92665,1755,1553,1640,52
92684,1695,1446,1547,53
92703,1660,1399,1470,51
92722,1647,1403,1468,46
92741,1656,1414,1461,52
92760,1684,1470,1496,51
92779,1695,1530,1513,53
92798,1715,1588,1567,52
92817,1702,1629,1589,55
92836,1709,1677,1640,55
92855,1711,1703,1689,57
92874,1733,1719,1737,57
92893,1749,1747,1771,59
92912,1773,1757,1765,58
92931,1784,1763,1764,53
92950,1779,1748,1741,57
92969,1769,1716,1727,56
92988,1765,1704,1709,55
93007,1756,1689,1692,57
93026,1780,1691,1686,56
93045,1801,1689,1689,55
93124,1895,1801,1761,76
93144,1927,1803,1741,61
93163,1855,1752,1677,55
93182,1829,1869,1787,61
93201,1975,2239,2094,71
93220,2367,2829,2639,88
93239,2824,3572,3277,106
93258,3191,4095,3879,123
93277,3351,4095,4095,127
93296,3248,4095,3923,120
93315,2943,3589,3439,103
93334,2568,2927,2925,85
93353,2222,2347,2455,76
93372,1933,1855,2031,60
93391,1739,1515,1739,55
93410,1625,1302,1549,47
93429,1587,1211,1431,47
93448,1577,1206,1385,53
93467,1599,1274,1445,47
93486,1663,1448,1565,53
93505,1772,1692,1739,60
93524,1938,1950,1959,63
93543,2084,2165,2165,73
93562,2186,2309,2295,76
93581,2198,2333,2349,71
93600,2148,2251,2297,75
93619,2029,2095,2172,70
93638,1918,1896,2028,61
93657,1821,1726,1881,59
93676,1739,1577,1717,57
93695,1703,1489,1606,54
93714,1671,1433,1519,52
93733,1647,1415,1468,51
93752,1629,1435,1450,51
93771,1651,1466,1470,52
93790,1651,1523,1495,52
93809,1706,1577,1541,53
93828,1739,1652,1597,53
93847,1771,1691,1647,61
93866,1771,1725,1700,57
93885,1768,1739,1723,55
93904,1764,1745,1753,57
93923,1766,1737,1764,55
93942,1775,1735,1767,59
93961,1802,1750,1762,59
93980,1773,1754,1757,59
93999,1791,1741,1751,59
94018,1783,1737,1723,55
94037,1797,1719,1703,56
94056,1773,1719,1693,53
94135,1943,1853,1767,75
94155,1927,1823,1757,57
94174,1835,1801,1721,55
94193,1843,1973,1868,63
94212,2105,2451,2281,77
94231,2548,3147,2911,87
94250,3022,3995,3641,122
94269,3362,4095,4095,132
94288,3476,4095,4095,125
94307,3291,4095,4095,126
94326,2981,3693,3559,109
94345,2635,3007,2991,91
94364,2283,2428,2516,78
94383,1967,1959,2104,69
94402,1767,1620,1799,56
94421,1651,1423,1625,52
94440,1607,1326,1526,51
94459,1625,1332,1510,52
94478,1683,1428,1581,54
94497,1751,1577,1673,59
94516,1851,1789,1831,61
94535,1951,1990,2003,67
94554,2039,2157,2153,73
94573,2110,2245,2263,72
94592,2141,2267,2281,75
94611,2119,2208,2235,74
94630,2045,2072,2147,69
94649,1959,1896,1995,63
94668,1845,1725,1849,59
94687,1764,1573,1707,55
94706,1693,1471,1587,53
94725,1655,1436,1507,53
94744,1645,1427,1476,51
94763,1647,1449,1465,47
94782,1647,1501,1484,53
94801,1670,1557,1513,51
94820,1691,1588,1556,53
94839,1705,1635,1599,51
94858,1752,1672,1640,55
94877,1779,1707,1675,57
94896,1779,1739,1707,57
94915,1785,1767,1723,57
94934,1774,1772,1756,56
94953,1767,1752,1751,58
94972,1757,1747,1743,51
94991,1775,1725,1739,55
95010,1787,1738,1721,61
95029,1803,1737,1699,57
95048,1814,1749,1699,61
95067,1803,1727,1690,59
95146,1938,1838,1774,78
95166,1920,1827,1765,59
95185,1827,1763,1694,54
95204,1776,1803,1737,53
95223,1875,2107,1981,69
95242,2251,2696,2523,87
95261,2781,3453,3229,104
95280,3247,4095,3997,126
95299,3533,4095,4095,134
95318,3506,4095,4095,133
95337,3217,3955,3975,123
95356,2838,3245,3375,105
95375,2457,2636,2831,85
95394,2131,2120,2351,71
95413,1890,1727,1979,61
95432,1735,1479,1717,55
95451,1641,1343,1551,50
95470,1609,1309,1495,51
95489,1627,1339,1486,47
95508,1671,1450,1573,54
95527,1758,1634,1702,57
95546,1867,1837,1892,63
95565,1980,2057,2063,72
95584,2070,2184,2200,69
95603,2109,2246,2277,75
95622,2119,2211,2267,71
95641,2079,2101,2188,71
95660,2013,1961,2063,63
95679,1927,1803,1897,59
95698,1840,1661,1763,62
95717,1755,1555,1635,55
95736,1689,1483,1524,55
95755,1647,1439,1465,51
95774,1638,1431,1449,47
95793,1642,1471,1463,51
95812,1674,1517,1495,53
95831,1703,1565,1527,53
95850,1727,1623,1580,55
95869,1726,1661,1621,55
95888,1737,1692,1657,56
95907,1751,1739,1700,55
95926,1769,1757,1752,59
95945,1775,1773,1771,57
95964,1787,1781,1783,59
95983,1791,1775,1763,56
96002,1775,1767,1749,57
96021,1775,1757,1733,57
96040,1769,1727,1709,58
96059,1780,1733,1707,57
96078,1799,1747,1703,57
96161,1948,1880,1802,76
96180,1939,1875,1773,59
96199,1836,1767,1689,57
96218,1766,1737,1643,53
96237,1755,1835,1717,55
96256,1907,2163,2027,69
96275,2301,2735,2607,89
96294,2813,3485,3307,109
96313,3240,4095,4029,135
96332,3476,4095,4095,135
96351,3371,4095,4095,127
96370,3069,3519,3701,111
96389,2687,2895,3148,93
96408,2303,2347,2619,76
96427,2007,1891,2163,61
96446,1787,1560,1805,56
96465,1657,1357,1577,50
96484,1589,1259,1429,46
96503,1571,1245,1383,51
96522,1581,1305,1397,47
96541,1635,1482,1525,51
96560,1749,1715,1727,59
96579,1901,1961,1962,63
96598,2059,2149,2157,77
96617,2175,2278,2300,75
96636,2213,2298,2361,74
96655,2193,2233,2325,72
96674,2105,2091,2203,69
96693,2012,1925,2063,61
96712,1899,1769,1899,58
96731,1812,1623,1737,59
96750,1727,1507,1605,53
96769,1661,1449,1511,53
96788,1636,1431,1459,51
96807,1630,1448,1439,51
96826,1647,1495,1452,51
96845,1679,1567,1497,52
96864,1709,1610,1546,58
96883,1717,1663,1598,53
96902,1733,1707,1641,57
96921,1755,1733,1691,55
96940,1759,1748,1727,56
96959,1772,1773,1739,57
96978,1785,1785,1758,59
96997,1807,1786,1759,57
97016,1812,1783,1765,61
97035,1797,1749,1750,58
97054,1779,1735,1739,56
97073,1785,1735,1720,55
97092,1799,1747,1699,58
97172,1929,1847,1803,76
97192,1929,1830,1769,59
97211,1847,1755,1688,56
97230,1802,1769,1707,56
97249,1831,1979,1906,61
97268,2093,2463,2373,79
97287,2583,3161,3062,102
97306,3087,3956,3876,125
97325,3455,4095,4095,133
97344,3559,4095,4095,127
97363,3372,4068,4095,128
97382,2987,3387,3733,117
97401,2599,2769,3103,93
97420,2223,2223,2551,75
97439,1945,1807,2095,61
97458,1752,1529,1781,54
97477,1657,1396,1591,52
97496,1615,1353,1483,53
97515,1631,1357,1467,51
97534,1657,1432,1511,51
97553,1696,1577,1636,55
97572,1797,1757,1803,57
97591,1917,1958,2003,67
97610,2043,2131,2163,71
97629,2141,2227,2284,72
97648,2181,2228,2296,78
97667,2123,2135,2235,73
97686,2035,1981,2127,71
97705,1928,1832,1973,61
97724,1828,1688,1817,57
97743,1751,1572,1686,57
97762,1708,1507,1575,53
97781,1685,1469,1483,59
97800,1660,1459,1453,47
97819,1644,1465,1437,47
97838,1645,1503,1465,52
97857,1660,1554,1507,52
97876,1704,1613,1559,55
97895,1726,1669,1591,52
97914,1759,1695,1639,52
97933,1785,1715,1676,55
97952,1786,1727,1708,55
97971,1785,1728,1721,56
97990,1787,1741,1738,55
98009,1803,1754,1737,57
98028,1817,1767,1749,55
98047,1819,1772,1727,56
98066,1813,1773,1719,56
98085,1801,1747,1699,55
98104,1785,1742,1688,55
98183,1956,1866,1785,74
98203,1931,1821,1750,60
98222,1832,1733,1681,55
98241,1771,1675,1637,55
98260,1765,1720,1675,59
98279,1848,1981,1928,61
98298,2136,2500,2426,85
98317,2610,3171,3146,104
98336,3099,3919,4021,133
98355,3437,4095,4095,127
98374,3494,4095,4095,133
98393,3303,3833,4095,125
98412,2941,3219,3759,117
98431,2543,2641,3107,101
98450,2189,2124,2547,75
98469,1901,1718,2093,61
98488,1693,1449,1743,55
98507,1604,1317,1541,48
98526,1571,1289,1428,45
98545,1577,1326,1403,53
98564,1613,1415,1449,52
98583,1671,1566,1573,56
98602,1767,1754,1739,59
98621,1878,1932,1960,63
98640,1999,2093,2153,72
98659,2105,2199,2264,73
98678,2159,2187,2303,73
98697,2135,2116,2276,73
98716,2057,1993,2133,70
98735,1945,1827,1949,61
98754,1831,1675,1799,55
98773,1747,1547,1651,52
98792,1707,1471,1525,54
98811,1685,1465,1465,53
98830,1705,1487,1444,53
98849,1739,1541,1433,53
98868,1750,1577,1459,52
98887,1771,1628,1484,47
98906,1768,1639,1516,51
98925,1789,1673,1566,52
98944,1802,1682,1617,56
98963,1816,1704,1671,57
98982,1815,1725,1701,56
99001,1802,1739,1721,57
99020,1784,1742,1723,57
99039,1786,1751,1726,54
99058,1781,1755,1717,57
99077,1801,1767,1710,57
99096,1823,1767,1720,57
99115,1843,1775,1724,55
99194,1965,1895,1806,78
99214,1971,1884,1769,63
99233,1881,1787,1690,55
99252,1789,1716,1643,55
99271,1737,1695,1621,53
99290,1735,1735,1663,56
99309,1839,1933,1878,62
99328,2129,2393,2326,82
99347,2635,2995,3017,103
99366,3167,3653,3766,121
99385,3540,4095,4095,127
99404,3628,4043,4095,127
99423,3400,3625,4095,127
99442,3044,3083,3565,107
99461,2645,2565,2955,89
99480,2268,2088,2441,73
99499,1941,1695,1989,61
99518,1702,1436,1671,55
99537,1564,1291,1445,49
99556,1518,1243,1315,43
99575,1517,1273,1315,47
99594,1579,1379,1381,52
99613,1655,1547,1541,57
99632,1775,1763,1756,59
99651,1915,1983,1993,68
99670,2055,2165,2196,72
99689,2182,2271,2329,71
99708,2228,2279,2349,76
99727,2219,2195,2310,75
99746,2137,2070,2171,69
99765,2012,1899,2007,63
99784,1892,1746,1818,55
99803,1757,1611,1653,53
99822,1690,1523,1531,53
99841,1637,1493,1461,47
99860,1640,1512,1437,47
99879,1662,1557,1427,51
99898,1693,1583,1465,45
99917,1719,1622,1492,54
99936,1717,1660,1543,55
99955,1725,1695,1597,53
99974,1739,1727,1652,53
99993,1769,1769,1698,59
100012,1801,1799,1727,55
100031,1820,1823,1755,59
100050,1822,1820,1757,58
100069,1819,1807,1763,55
100088,1803,1791,1745,57
100107,1801,1775,1737,57
100126,1811,1785,1741,58
100205,1942,1883,1789,77
100224,1942,1863,1789,57
100243,1869,1803,1707,57
100262,1799,1763,1655,55
100281,1806,1813,1723,59
100300,1882,2083,2008,70
100319,2197,2577,2557,86
100338,2695,3192,3308,105
